"Popolazione per età, vista per singola area - Comune: 111077 - Serramanna"

"Ricostruzione della popolazione intercensuaria - Popolazione al 1° gennaio per età"
"Tutte le cittadinanze - Comune: Serramanna"
Età/Anno;2002;2003;2004;2005;2006;2007;2008;2009;2010;2011;2012;2013;2014;2015;2016;2017;2018;2019
Età;Totale
0;78;67;75;68;68;76;53;68;55;73;63;78;67;63;58;63;48;52
1;60;78;67;76;69;70;72;54;70;54;70;62;78;68;67;59;66;49
2;86;63;77;65;73;74;72;76;57;72;48;72;67;77;68;64;56;67
3;70;89;60;78;65;73;76;75;75;61;75;48;72;67;75;67;63;55
4;72;71;90;63;79;68;71;74;74;80;57;75;51;73;66;76;69;61
5;93;76;68;89;62;77;67;73;74;75;77;55;75;50;74;66;76;66
6;90;93;76;69;91;67;76;69;74;77;74;78;55;72;49;75;67;75
7;61;90;91;77;69;91;67;77;70;76;77;73;80;55;73;50;76;66
8;74;62;89;91;78;74;93;69;77;72;77;78;73;80;54;75;51;74
9;83;73;63;89;91;78;74;93;69;79;72;76;82;74;80;54;76;50
10;83;83;73;68;88;91;81;73;92;69;78;71;78;82;77;77;55;76
11;111;84;83;76;72;93;90;80;73;94;69;78;69;79;81;77;76;51
12;95;112;82;82;77;73;96;90;79;73;95;68;77;67;77;79;74;74
13;110;97;109;83;83;78;71;94;92;79;72;95;68;78;70;78;80;75
14;88;111;96;109;84;86;74;71;93;94;78;72;95;69;80;71;76;80
15;109;89;112;95;106;84;87;75;70;93;93;78;72;96;69;81;71;75
16;142;109;89;113;96;106;84;87;75;67;93;94;77;70;96;71;81;72
17;136;142;109;87;116;99;102;81;87;76;68;94;94;76;70;96;70;83
18;127;134;142;109;86;117;94;102;82;87;78;68;94;91;78;72;97;68
19;143;125;130;142;107;86;115;94;104;83;86;77;68;95;91;77;72;96
20;145;140;126;132;143;106;87;114;96;103;83;84;78;67;95;91;78;71
21;140;143;141;122;135;140;110;89;116;95;104;81;88;78;64;94;93;76
22;149;138;137;142;122;138;139;113;89;118;92;102;80;84;76;62;92;96
23;154;145;135;135;140;126;141;137;110;88;117;94;100;79;83;78;63;90
24;157;153;141;135;134;139;120;143;136;111;93;115;97;102;79;82;79;62
25;152;158;153;142;133;135;136;115;140;136;109;92;111;95;100;77;80;75
26;163;148;154;152;141;133;135;134;115;141;133;109;94;110;94;105;77;73
27;164;157;143;152;147;146;134;132;135;119;139;125;108;89;107;90;106;79
28;173;170;157;147;145;148;143;131;131;133;112;136;125;106;83;99;88;100
29;128;174;173;153;136;144;147;143;138;132;134;117;133;128;108;80;101;85
30;159;135;169;168;146;135;140;149;140;134;130;127;119;131;125;108;83;98
31;147;157;134;167;163;147;139;141;148;139;134;128;132;116;131;120;103;79
32;165;150;154;128;161;155;144;142;136;146;136;128;125;134;116;124;122;101
33;122;167;142;151;123;158;156;138;144;135;148;135;132;125;135;112;127;126
34;150;125;162;136;150;121;160;151;147;139;144;148;131;128;128;137;105;126
35;151;151;117;168;134;154;120;158;151;144;139;144;147;134;120;122;131;102
36;144;150;151;114;167;127;148;118;168;158;144;139;141;152;131;124;123;123
37;154;141;151;152;111;171;121;147;119;169;156;143;141;142;154;127;124;117
38;169;158;143;154;151;110;171;120;147;116;165;152;153;143;141;146;123;123
39;148;172;161;144;149;154;113;169;121;146;116;164;151;153;141;141;144;125
40;162;148;171;156;146;152;153;117;169;121;142;115;163;147;153;138;136;141
41;143;158;147;172;154;150;154;155;115;172;120;142;114;157;147;151;136;138
42;163;143;155;146;173;155;149;152;154;114;171;122;141;116;156;146;151;141
43;135;160;142;157;148;173;149;152;152;154;111;172;126;143;116;156;147;152
44;154;134;161;143;157;151;171;151;153;149;153;113;168;126;144;114;155;147
45;173;154;133;159;141;158;151;169;147;152;151;154;114;167;127;143;115;156
46;154;175;151;135;157;141;156;153;168;151;151;149;154;112;168;127;143;115
47;123;153;174;150;135;158;140;159;150;171;153;150;147;152;113;166;126;148
48;122;123;150;175;151;136;154;139;156;151;171;155;150;150;149;114;165;125
49;125;123;124;150;176;150;137;150;139;154;149;173;159;147;153;151;107;167
50;117;126;121;123;152;173;151;133;149;138;151;147;174;161;144;156;153;106
51;120;115;125;117;122;152;174;148;131;149;133;151;146;170;155;146;156;146
52;121;119;116;127;118;120;152;173;149;132;151;131;149;144;169;156;150;157
53;107;117;118;116;127;116;120;153;171;149;132;148;130;150;145;165;153;154
54;130;106;117;118;112;126;114;120;153;167;150;133;149;130;151;146;166;149
55;126;129;107;115;117;110;126;113;120;156;167;150;133;150;130;153;146;167
56;99;124;130;105;117;116;110;127;115;117;155;166;150;131;149;130;151;142
57;102;98;126;130;106;116;118;109;128;115;116;155;163;148;128;148;133;150
58;108;102;98;126;129;105;116;118;110;124;115;116;151;162;149;127;147;133
59;100;107;102;98;124;128;105;114;119;108;124;115;113;149;163;149;125;149
60;109;100;107;102;99;122;125;107;112;120;108;125;115;113;149;162;148;126
61;99;110;97;103;103;98;122;125;108;111;119;106;127;115;115;148;160;146
62;103;99;108;96;104;101;98;122;126;109;111;119;104;126;116;114;147;158
63;88;104;97;106;96;100;101;98;122;124;106;112;117;101;125;116;114;149
64;90;85;104;95;105;93;99;100;96;123;126;106;112;117;101;124;115;112
65;97;90;84;102;93;107;93;99;101;95;121;125;105;110;118;102;121;114
66;90;97;89;84;99;93;107;93;99;101;94;120;124;104;114;117;100;118
67;92;90;97;90;82;95;92;108;93;99;101;93;119;123;103;117;116;96
68;79;93;87;96;89;82;92;90;107;93;99;99;91;119;123;103;114;113
69;81;79;89;85;92;88;79;90;89;103;94;99;97;90;118;123;100;111
70;85;81;75;86;79;90;88;77;91;92;101;92;98;97;88;116;122;102
71;73;85;78;75;79;76;87;89;76;91;91;99;89;97;96;88;115;121
72;88;73;84;81;72;76;76;86;87;74;89;89;98;88;94;95;87;109
73;73;83;73;82;78;72;74;74;82;86;74;86;90;98;88;94;91;85
74;65;74;81;71;80;73;71;72;71;79;82;71;84;89;96;85;93;93
75;65;64;72;80;72;77;71;73;70;70;75;82;71;81;85;96;81;91
76;70;62;62;70;79;70;74;73;72;66;66;73;83;67;81;83;94;81
77;69;64;61;63;68;78;66;70;71;72;62;65;73;83;65;81;77;93
78;58;63;64;58;59;63;73;63;66;68;73;61;60;72;80;60;75;75
79;56;54;61;62;53;57;63;71;60;63;66;71;60;60;70;77;59;74
80;47;52;49;58;60;51;57;60;65;58;59;63;66;58;59;69;72;59
81;52;40;48;47;54;53;49;54;54;60;54;55;55;62;52;58;69;69
82;39;48;39;48;49;49;49;47;53;51;56;50;52;54;61;50;54;64
83;28;34;44;35;46;47;46;43;46;46;45;51;47;49;48;60;44;53
84;29;24;32;39;34;43;41;38;40;41;40;40;47;46;44;44;55;43
85;20;27;22;29;36;31;39;34;36;34;36;37;36;42;42;42;43;51
86;30;18;24;19;26;36;26;39;30;34;33;37;35;35;42;39;39;37
87;24;28;16;22;17;25;31;23;37;24;30;33;34;26;34;37;32;33
88;18;21;26;16;23;14;21;26;24;33;18;29;25;30;23;31;33;27
89;26;16;15;25;11;18;11;19;25;20;29;18;22;20;28;21;24;30
90;14;24;13;9;20;11;16;6;16;20;17;23;18;20;17;26;19;21
91;13;9;20;10;12;15;10;16;5;16;20;16;20;13;17;16;21;16
92;10;9;8;16;9;12;15;10;13;4;12;19;13;14;9;13;14;20
93;10;7;6;7;14;7;10;12;7;10;4;10;13;11;11;7;10;11
94;9;6;7;4;4;14;6;9;9;5;8;4;9;8;7;10;8;7
95;2;7;4;3;1;3;13;5;6;9;5;7;2;7;5;3;9;4
96;1;3;5;2;1;1;2;11;4;6;9;5;7;2;7;4;3;6
97;3;1;0;5;2;0;1;2;7;4;4;7;4;4;1;6;2;3
98;1;2;1;0;2;2;0;0;1;6;2;4;5;2;3;0;6;1
99;0;0;0;0;0;1;2;0;0;1;5;2;2;4;0;3;0;3
100 e oltre;1;1;1;1;1;0;0;1;0;0;1;3;4;2;4;2;5;3
Totale;9536;9521;9443;9423;9356;9378;9315;9299;9294;9301;9239;9216;9205;9149;9112;9071;8994;8903
Età/Anno;2002;2003;2004;2005;2006;2007;2008;2009;2010;2011;2012;2013;2014;2015;2016;2017;2018;2019
Età;Maschi
0;39;31;43;36;43;38;26;35;27;36;32;44;36;35;27;29;22;30
1;25;38;31;44;36;43;34;26;36;26;37;31;43;36;39;28;32;23
2;43;26;37;30;43;40;46;37;27;37;24;36;34;43;34;36;26;33
3;40;47;24;37;31;43;40;47;38;30;39;24;36;33;42;31;37;25
4;42;40;47;26;37;33;41;41;46;40;28;40;25;37;33;44;33;36
5;56;44;38;46;25;36;32;43;41;46;38;27;40;25;40;33;43;31
6;40;56;45;38;47;28;36;35;44;45;45;38;26;38;24;40;33;41
7;28;41;55;45;40;47;29;37;35;44;45;45;40;27;39;25;41;32
8;43;28;39;56;47;45;49;28;37;37;46;46;45;40;26;41;26;40
9;49;42;26;38;56;47;44;49;27;38;37;45;48;45;40;27;41;26
10;35;49;42;27;38;56;48;43;47;27;37;37;46;48;46;38;28;39
11;54;35;48;45;28;41;56;47;43;49;27;37;37;47;47;46;38;24
12;56;54;35;47;45;28;44;55;46;43;49;27;37;35;45;44;43;38
13;64;57;55;35;47;47;26;42;55;45;42;49;27;38;38;47;44;44
14;44;65;55;55;35;47;45;28;42;56;46;42;49;28;39;39;45;43
15;57;45;65;54;56;35;47;46;28;42;56;46;42;49;28;39;37;44
16;76;57;45;64;54;56;34;47;46;27;42;57;46;42;49;29;39;38
17;74;76;56;45;67;54;54;33;47;46;27;42;57;44;42;49;28;40
18;67;74;75;56;46;67;52;54;34;46;47;27;42;56;46;42;50;26
19;81;66;72;75;54;45;65;52;55;33;46;47;27;42;55;45;42;48
20;81;80;66;74;75;55;44;65;53;55;34;46;48;26;42;55;45;42
21;75;80;80;62;75;74;59;46;66;53;54;33;47;48;25;42;55;45
22;70;73;74;81;63;76;74;60;45;68;51;54;32;46;47;25;40;56
23;80;70;70;72;82;66;79;73;57;46;68;51;50;32;45;47;26;41
24;76;78;65;70;73;80;64;82;74;57;49;66;53;52;34;44;47;25
25;80;77;76;66;71;75;76;61;80;74;54;50;63;51;50;33;44;45
26;75;78;73;79;63;69;75;78;63;79;73;55;50;66;49;52;32;41
27;91;71;76;74;77;65;69;72;79;66;79;70;56;49;62;49;56;32
28;88;92;74;79;69;77;64;66;72;81;62;73;69;54;48;60;49;52
29;70;83;94;72;76;70;75;63;66;73;84;66;75;69;53;46;60;49
30;68;70;80;88;69;75;71;76;62;62;73;79;68;74;67;52;46;56
31;83;68;72;79;85;73;78;70;76;60;63;73;77;63;71;65;51;46
32;84;84;69;67;76;81;72;78;71;74;61;58;70;76;62;65;66;53
33;58;86;79;69;59;76;79;69;79;72;75;61;57;71;77;59;67;68
34;82;59;83;76;69;57;76;81;71;78;77;73;61;59;71;79;57;66
35;75;83;56;83;75;73;57;76;81;69;80;77;70;61;56;68;75;57
36;72;74;85;52;81;72;70;58;80;83;68;80;76;73;61;60;69;71
37;74;71;72;87;52;83;66;69;59;81;80;68;81;79;75;59;59;64
38;79;77;72;75;85;51;83;65;69;58;78;80;76;81;78;70;56;61
39;71;80;79;72;73;87;52;83;67;71;58;78;79;75;82;78;71;56
40;73;71;81;76;77;74;87;56;86;67;68;58;76;76;76;81;76;70
41;73;71;70;82;74;80;76;89;54;87;68;69;58;71;76;77;79;75
42;81;73;70;70;83;75;79;76;87;51;86;68;69;58;71;75;75;83
43;61;80;72;71;72;83;72;82;76;86;49;87;67;72;59;70;76;75
44;79;61;82;73;71;75;82;73;83;76;85;51;86;67;72;58;70;76
45;84;79;60;80;72;71;75;80;72;82;77;84;52;86;69;71;59;71
46;81;86;76;61;81;73;69;75;78;76;80;77;84;50;86;72;72;60
47;65;80;86;76;62;81;73;72;73;81;78;79;75;84;50;85;72;74
48;58;66;78;87;75;61;81;74;72;73;81;80;79;77;82;50;83;71
49;63;59;65;79;88;73;62;77;74;71;72;83;83;77;78;84;49;84
50;71;64;59;66;80;87;74;60;77;73;70;70;83;83;75;81;85;48
51;63;70;63;59;65;80;87;73;59;78;70;70;69;80;80;76;81;80
52;61;61;70;65;59;61;80;85;72;60;79;69;69;69;78;81;79;82
53;64;58;60;70;63;57;61;82;84;72;60;77;69;70;69;77;78;81
54;57;63;58;59;68;63;55;61;82;81;73;59;77;67;71;69;77;76
55;64;56;64;57;58;65;62;53;61;82;81;73;59;80;67;72;69;77
56;50;63;57;63;58;58;66;63;54;58;81;81;74;59;80;67;70;68
57;48;48;64;57;64;60;59;66;63;54;57;81;78;72;55;79;70;70
58;59;48;48;63;57;63;60;60;66;61;54;57;79;78;72;54;78;70
59;50;59;48;49;61;56;63;58;61;65;61;54;55;78;78;72;54;79
60;53;51;59;48;50;59;56;64;56;62;65;60;54;55;78;77;71;55
61;47;54;50;55;49;49;59;56;65;55;62;63;59;54;55;78;76;71
62;48;47;52;50;55;47;50;60;58;65;54;62;61;58;54;54;77;74
63;40;49;46;51;50;49;47;50;60;56;62;54;63;60;57;53;54;77
64;37;37;48;44;50;49;47;46;48;62;57;62;54;63;59;57;53;54
65;49;37;36;48;44;50;48;48;47;48;62;56;62;53;63;59;57;53
66;43;49;37;36;45;44;50;49;48;48;48;60;55;62;56;63;58;57
67;38;43;49;37;35;42;44;49;49;48;48;47;58;54;61;58;61;56
68;42;39;42;48;37;34;41;43;48;49;48;47;47;57;54;61;56;60
69;32;41;36;41;44;37;33;40;41;46;49;48;45;47;57;54;58;55
70;44;31;38;35;38;43;37;31;40;42;45;48;48;45;45;56;53;60
71;36;44;29;38;32;35;41;38;29;40;42;43;48;49;44;45;56;53
72;41;36;43;30;36;29;35;40;37;28;39;42;42;48;46;43;44;54
73;37;36;35;41;29;36;27;33;38;36;28;37;43;42;49;46;39;43
74;30;38;35;35;40;28;36;25;32;36;33;26;35;43;42;47;46;40
75;37;29;38;35;36;37;28;38;25;32;33;33;26;33;40;42;43;45
76;20;36;28;37;34;34;36;30;36;24;29;31;33;26;33;39;41;43
77;31;19;35;29;35;34;31;32;30;34;22;29;31;33;24;33;34;40
78;28;30;20;34;26;30;33;30;32;27;35;20;27;31;30;21;28;32
79;24;27;31;19;31;25;28;31;27;29;27;35;20;27;29;29;21;27
80;11;21;24;31;19;28;24;25;27;25;27;26;30;19;27;28;25;21
81;21;6;18;21;28;15;26;21;21;25;22;25;23;26;17;27;27;24
82;12;19;5;18;22;24;12;24;21;20;23;20;25;23;25;17;26;25
83;11;11;16;3;16;21;22;7;23;18;14;21;18;22;21;24;15;25
84;9;10;10;13;2;12;17;18;7;19;15;12;21;17;19;17;20;14
85;7;8;11;10;12;1;12;14;17;4;16;13;12;19;16;17;17;19
86;12;7;6;9;9;11;1;13;11;15;4;16;12;12;19;15;15;16
87;12;10;6;5;8;8;9;1;11;9;13;4;14;9;11;16;13;10
88;2;10;10;6;5;7;6;8;2;10;5;12;2;12;6;10;16;11
89;10;2;8;9;6;3;7;5;7;2;8;5;8;2;11;6;7;14
90;4;9;2;5;5;5;3;4;4;5;2;4;5;7;2;11;5;5
91;3;2;9;1;5;3;5;2;3;3;5;2;2;4;6;2;8;3
92;1;1;2;6;1;4;3;5;1;2;2;4;1;1;3;5;2;8
93;2;0;1;2;6;0;3;3;3;1;2;1;4;1;1;3;4;2
94;4;2;0;1;1;6;0;3;2;2;1;2;0;2;1;1;3;3
95;0;2;1;0;0;1;6;0;3;2;2;0;1;0;1;0;1;2
96;0;0;2;0;0;0;1;5;0;3;2;2;0;1;0;0;0;1
97;1;0;0;2;0;0;0;1;4;0;3;1;2;0;0;0;0;0
98;0;1;0;0;1;0;0;0;1;3;0;3;1;0;0;0;0;0
99;0;0;0;0;0;1;0;0;0;1;2;0;1;1;0;0;0;0
100 e oltre;1;1;1;1;1;0;0;0;0;0;1;1;1;1;1;0;0;0
Totale;4730;4716;4678;4673;4654;4648;4618;4623;4619;4623;4598;4582;4576;4566;4541;4525;4481;4449
Età/Anno;2002;2003;2004;2005;2006;2007;2008;2009;2010;2011;2012;2013;2014;2015;2016;2017;2018;2019
Età;Femmine
0;39;36;32;32;25;38;27;33;28;37;31;34;31;28;31;34;26;22
1;35;40;36;32;33;27;38;28;34;28;33;31;35;32;28;31;34;26
2;43;37;40;35;30;34;26;39;30;35;24;36;33;34;34;28;30;34
3;30;42;36;41;34;30;36;28;37;31;36;24;36;34;33;36;26;30
4;30;31;43;37;42;35;30;33;28;40;29;35;26;36;33;32;36;25
5;37;32;30;43;37;41;35;30;33;29;39;28;35;25;34;33;33;35
6;50;37;31;31;44;39;40;34;30;32;29;40;29;34;25;35;34;34
7;33;49;36;32;29;44;38;40;35;32;32;28;40;28;34;25;35;34
8;31;34;50;35;31;29;44;41;40;35;31;32;28;40;28;34;25;34
9;34;31;37;51;35;31;30;44;42;41;35;31;34;29;40;27;35;24
10;48;34;31;41;50;35;33;30;45;42;41;34;32;34;31;39;27;37
11;57;49;35;31;44;52;34;33;30;45;42;41;32;32;34;31;38;27
12;39;58;47;35;32;45;52;35;33;30;46;41;40;32;32;35;31;36
13;46;40;54;48;36;31;45;52;37;34;30;46;41;40;32;31;36;31
14;44;46;41;54;49;39;29;43;51;38;32;30;46;41;41;32;31;37
15;52;44;47;41;50;49;40;29;42;51;37;32;30;47;41;42;34;31
16;66;52;44;49;42;50;50;40;29;40;51;37;31;28;47;42;42;34
17;62;66;53;42;49;45;48;48;40;30;41;52;37;32;28;47;42;43
18;60;60;67;53;40;50;42;48;48;41;31;41;52;35;32;30;47;42
19;62;59;58;67;53;41;50;42;49;50;40;30;41;53;36;32;30;48
20;64;60;60;58;68;51;43;49;43;48;49;38;30;41;53;36;33;29
21;65;63;61;60;60;66;51;43;50;42;50;48;41;30;39;52;38;31
22;79;65;63;61;59;62;65;53;44;50;41;48;48;38;29;37;52;40
23;74;75;65;63;58;60;62;64;53;42;49;43;50;47;38;31;37;49
24;81;75;76;65;61;59;56;61;62;54;44;49;44;50;45;38;32;37
25;72;81;77;76;62;60;60;54;60;62;55;42;48;44;50;44;36;30
26;88;70;81;73;78;64;60;56;52;62;60;54;44;44;45;53;45;32
27;73;86;67;78;70;81;65;60;56;53;60;55;52;40;45;41;50;47
28;85;78;83;68;76;71;79;65;59;52;50;63;56;52;35;39;39;48
29;58;91;79;81;60;74;72;80;72;59;50;51;58;59;55;34;41;36
30;91;65;89;80;77;60;69;73;78;72;57;48;51;57;58;56;37;42
31;64;89;62;88;78;74;61;71;72;79;71;55;55;53;60;55;52;33
32;81;66;85;61;85;74;72;64;65;72;75;70;55;58;54;59;56;48
33;64;81;63;82;64;82;77;69;65;63;73;74;75;54;58;53;60;58
34;68;66;79;60;81;64;84;70;76;61;67;75;70;69;57;58;48;60
35;76;68;61;85;59;81;63;82;70;75;59;67;77;73;64;54;56;45
36;72;76;66;62;86;55;78;60;88;75;76;59;65;79;70;64;54;52
37;80;70;79;65;59;88;55;78;60;88;76;75;60;63;79;68;65;53
38;90;81;71;79;66;59;88;55;78;58;87;72;77;62;63;76;67;62
39;77;92;82;72;76;67;61;86;54;75;58;86;72;78;59;63;73;69
40;89;77;90;80;69;78;66;61;83;54;74;57;87;71;77;57;60;71
41;70;87;77;90;80;70;78;66;61;85;52;73;56;86;71;74;57;63
42;82;70;85;76;90;80;70;76;67;63;85;54;72;58;85;71;76;58
43;74;80;70;86;76;90;77;70;76;68;62;85;59;71;57;86;71;77
44;75;73;79;70;86;76;89;78;70;73;68;62;82;59;72;56;85;71
45;89;75;73;79;69;87;76;89;75;70;74;70;62;81;58;72;56;85
46;73;89;75;74;76;68;87;78;90;75;71;72;70;62;82;55;71;55
47;58;73;88;74;73;77;67;87;77;90;75;71;72;68;63;81;54;74
48;64;57;72;88;76;75;73;65;84;78;90;75;71;73;67;64;82;54
49;62;64;59;71;88;77;75;73;65;83;77;90;76;70;75;67;58;83
50;46;62;62;57;72;86;77;73;72;65;81;77;91;78;69;75;68;58
51;57;45;62;58;57;72;87;75;72;71;63;81;77;90;75;70;75;66
52;60;58;46;62;59;59;72;88;77;72;72;62;80;75;91;75;71;75
53;43;59;58;46;64;59;59;71;87;77;72;71;61;80;76;88;75;73
54;73;43;59;59;44;63;59;59;71;86;77;74;72;63;80;77;89;73
55;62;73;43;58;59;45;64;60;59;74;86;77;74;70;63;81;77;90
56;49;61;73;42;59;58;44;64;61;59;74;85;76;72;69;63;81;74
57;54;50;62;73;42;56;59;43;65;61;59;74;85;76;73;69;63;80
58;49;54;50;63;72;42;56;58;44;63;61;59;72;84;77;73;69;63
59;50;48;54;49;63;72;42;56;58;43;63;61;58;71;85;77;71;70
60;56;49;48;54;49;63;69;43;56;58;43;65;61;58;71;85;77;71
61;52;56;47;48;54;49;63;69;43;56;57;43;68;61;60;70;84;75
62;55;52;56;46;49;54;48;62;68;44;57;57;43;68;62;60;70;84
63;48;55;51;55;46;51;54;48;62;68;44;58;54;41;68;63;60;72
64;53;48;56;51;55;44;52;54;48;61;69;44;58;54;42;67;62;58
65;48;53;48;54;49;57;45;51;54;47;59;69;43;57;55;43;64;61
66;47;48;52;48;54;49;57;44;51;53;46;60;69;42;58;54;42;61
67;54;47;48;53;47;53;48;59;44;51;53;46;61;69;42;59;55;40
68;37;54;45;48;52;48;51;47;59;44;51;52;44;62;69;42;58;53
69;49;38;53;44;48;51;46;50;48;57;45;51;52;43;61;69;42;56
70;41;50;37;51;41;47;51;46;51;50;56;44;50;52;43;60;69;42
71;37;41;49;37;47;41;46;51;47;51;49;56;41;48;52;43;59;68
72;47;37;41;51;36;47;41;46;50;46;50;47;56;40;48;52;43;55
73;36;47;38;41;49;36;47;41;44;50;46;49;47;56;39;48;52;42
74;35;36;46;36;40;45;35;47;39;43;49;45;49;46;54;38;47;53
75;28;35;34;45;36;40;43;35;45;38;42;49;45;48;45;54;38;46
76;50;26;34;33;45;36;38;43;36;42;37;42;50;41;48;44;53;38
77;38;45;26;34;33;44;35;38;41;38;40;36;42;50;41;48;43;53
78;30;33;44;24;33;33;40;33;34;41;38;41;33;41;50;39;47;43
79;32;27;30;43;22;32;35;40;33;34;39;36;40;33;41;48;38;47
80;36;31;25;27;41;23;33;35;38;33;32;37;36;39;32;41;47;38
81;31;34;30;26;26;38;23;33;33;35;32;30;32;36;35;31;42;45
82;27;29;34;30;27;25;37;23;32;31;33;30;27;31;36;33;28;39
83;17;23;28;32;30;26;24;36;23;28;31;30;29;27;27;36;29;28
84;20;14;22;26;32;31;24;20;33;22;25;28;26;29;25;27;35;29
85;13;19;11;19;24;30;27;20;19;30;20;24;24;23;26;25;26;32
86;18;11;18;10;17;25;25;26;19;19;29;21;23;23;23;24;24;21
87;12;18;10;17;9;17;22;22;26;15;17;29;20;17;23;21;19;23
88;16;11;16;10;18;7;15;18;22;23;13;17;23;18;17;21;17;16
89;16;14;7;16;5;15;4;14;18;18;21;13;14;18;17;15;17;16
90;10;15;11;4;15;6;13;2;12;15;15;19;13;13;15;15;14;16
91;10;7;11;9;7;12;5;14;2;13;15;14;18;9;11;14;13;13
92;9;8;6;10;8;8;12;5;12;2;10;15;12;13;6;8;12;12
93;8;7;5;5;8;7;7;9;4;9;2;9;9;10;10;4;6;9
94;5;4;7;3;3;8;6;6;7;3;7;2;9;6;6;9;5;4
95;2;5;3;3;1;2;7;5;3;7;3;7;1;7;4;3;8;2
96;1;3;3;2;1;1;1;6;4;3;7;3;7;1;7;4;3;5
97;2;1;0;3;2;0;1;1;3;4;1;6;2;4;1;6;2;3
98;1;1;1;0;1;2;0;0;0;3;2;1;4;2;3;0;6;1
99;0;0;0;0;0;0;2;0;0;0;3;2;1;3;0;3;0;3
100 e oltre;0;0;0;0;0;0;0;1;0;0;0;2;3;1;3;2;5;3
Totale;4806;4805;4765;4750;4702;4730;4697;4676;4675;4678;4641;4634;4629;4583;4571;4546;4513;4454

"Ricostruzione della popolazione intercensuaria - Popolazione al 1° gennaio per età"
"Cittadinanza italiana - Comune: Serramanna"
Età/Anno;2002;2003;2004;2005;2006;2007;2008;2009;2010;2011;2012;2013;2014;2015;2016;2017;2018;2019
Età;Totale
0;78;65;75;67;68;75;52;67;52;72;62;77;65;60;55;62;48;48
1;60;78;67;76;68;70;71;53;69;51;68;60;75;67;63;56;66;49
2;86;63;77;65;73;73;72;75;55;71;46;71;64;75;67;61;54;67
3;70;89;60;78;65;73;75;74;74;58;71;46;71;64;73;67;60;53
4;72;70;90;62;79;67;71;73;73;76;55;71;48;72;63;75;69;60
5;93;76;68;89;61;77;66;73;73;74;74;53;71;48;73;63;75;66
6;90;92;76;69;91;65;76;68;74;76;73;75;53;69;47;74;64;74
7;61;90;91;77;69;91;63;77;69;76;76;72;77;53;70;47;75;64
8;73;62;89;91;77;74;92;65;77;69;77;77;71;77;52;72;48;74
9;83;71;63;89;91;77;74;92;66;78;69;76;81;72;76;53;73;47
10;83;83;72;67;88;91;80;73;91;66;77;68;78;81;74;74;54;74
11;111;84;83;75;69;93;90;79;73;93;66;77;67;79;80;74;73;51
12;94;111;82;82;76;70;95;90;78;73;94;65;76;65;77;78;72;71
13;110;96;109;83;82;77;68;93;92;78;72;94;65;77;67;77;79;73
14;88;111;95;109;84;85;74;69;92;93;76;72;94;66;78;68;76;80
15;109;89;112;94;105;84;85;75;68;92;92;76;72;95;66;78;69;75
16;142;109;89;113;94;105;84;85;75;66;92;93;75;70;95;68;78;70
17;136;142;109;87;115;97;102;81;85;76;67;92;93;74;70;95;67;80
18;127;134;142;109;85;116;94;102;81;84;78;67;92;90;75;72;96;66
19;143;125;130;142;107;85;115;93;104;83;83;77;67;93;89;74;72;95
20;144;140;126;131;143;106;84;113;95;102;82;81;78;66;91;89;75;71
21;140;143;141;122;134;140;108;86;114;94;103;80;85;78;63;90;91;73
22;149;138;137;142;122;137;138;110;87;116;91;101;79;81;76;61;88;95
23;153;145;135;134;140;126;138;136;108;86;114;93;98;78;81;78;62;86
24;157;152;141;135;133;139;120;140;135;109;89;111;95;100;77;80;79;62
25;149;158;151;142;133;134;136;115;137;134;107;87;108;94;99;75;78;75
26;161;145;154;151;141;133;132;133;115;136;131;108;90;107;91;102;74;71
27;164;155;140;152;147;146;133;129;133;117;134;122;105;85;104;86;102;76
28;173;167;155;142;145;148;141;129;126;130;111;130;120;103;79;96;85;97
29;128;171;170;151;135;144;147;142;133;124;127;115;126;123;104;76;99;81
30;157;132;166;163;145;132;137;149;137;127;122;121;117;124;119;104;78;96
31;145;155;132;164;159;146;132;138;148;136;126;120;123;114;123;116;99;72
32;165;147;151;124;157;151;140;135;135;143;133;120;120;128;113;118;118;97
33;121;167;141;148;118;154;152;135;140;134;144;132;123;119;129;111;119;122
34;150;124;162;136;147;115;156;148;143;133;143;144;128;120;122;131;103;118
35;151;151;116;167;134;150;115;156;147;141;133;142;144;131;114;117;127;99
36;144;150;151;113;166;127;144;114;166;152;141;132;138;146;127;119;118;119
37;154;141;151;150;110;169;121;143;115;167;149;140;132;139;148;123;118;111
38;169;157;142;154;149;109;169;120;143;112;163;145;145;133;138;143;118;117
39;146;172;161;144;149;152;108;167;121;143;112;162;146;147;132;138;141;121
40;162;146;171;156;146;152;151;111;167;120;139;111;162;142;147;128;133;138
41;142;158;146;171;154;150;153;152;111;170;119;139;110;156;142;145;129;135
42;163;142;155;145;172;155;149;151;151;109;169;121;139;112;155;142;145;135
43;135;160;142;157;147;172;149;152;152;151;105;170;125;141;112;155;143;145
44;154;134;161;142;157;150;170;151;153;149;150;106;167;125;141;109;154;143
45;172;154;133;159;140;158;148;168;147;152;151;152;107;166;124;140;111;156
46;154;174;151;134;156;140;156;150;167;150;151;149;152;106;165;125;140;111
47;122;153;173;150;134;157;139;159;148;170;152;150;147;150;106;164;124;145
48;121;122;150;173;151;135;154;138;156;149;170;152;150;150;147;108;163;124
49;125;120;123;150;175;150;135;149;138;154;147;172;154;147;153;148;101;165
50;116;126;119;122;152;172;150;131;148;137;151;145;173;155;144;155;150;100
51;119;114;125;116;121;152;172;147;129;148;133;151;144;169;151;146;153;143
52;121;118;115;127;118;119;152;171;147;130;150;131;148;142;168;152;150;154
53;107;117;117;115;127;115;119;152;168;148;130;148;129;149;143;164;150;153
54;130;106;117;117;111;126;113;119;152;166;149;131;149;129;150;144;165;146
55;125;129;107;115;116;109;126;112;119;154;166;149;131;150;129;152;144;166
56;99;123;130;105;117;115;110;127;114;116;153;165;149;130;149;129;150;140
57;102;98;125;130;106;116;117;108;128;114;115;152;161;147;127;148;132;149
58;108;102;98;125;129;105;116;117;109;124;114;115;149;160;147;126;147;131
59;100;107;102;98;123;128;105;114;118;108;124;114;112;147;161;146;124;147
60;109;100;107;102;99;121;125;107;112;119;108;124;113;112;147;161;144;125
61;99;110;97;103;103;98;122;125;108;111;118;106;124;113;112;146;159;143
62;103;99;108;96;104;101;98;122;126;109;111;118;104;123;113;111;145;157
63;88;104;97;106;96;100;101;98;122;124;106;112;116;101;122;113;111;147
64;90;85;104;95;105;93;99;100;96;123;126;106;111;116;101;122;112;111
65;97;90;84;102;93;107;93;99;101;95;121;125;105;110;116;102;120;111
66;90;97;89;84;99;93;107;93;99;101;94;119;124;104;113;114;100;118
67;92;90;97;90;82;95;92;108;93;99;101;93;117;123;103;115;113;96
68;79;93;87;96;89;82;92;90;107;93;99;99;91;117;123;103;112;112
69;81;79;89;85;92;88;79;90;88;103;94;99;97;90;116;123;100;111
70;85;81;75;86;79;90;88;77;91;91;101;92;98;97;88;114;122;102
71;73;85;78;75;79;76;87;89;76;91;91;99;89;97;96;88;113;121
72;87;73;84;81;72;76;76;86;87;74;89;89;98;88;94;95;87;108
73;73;82;73;82;78;72;74;74;82;86;74;86;90;98;88;94;91;85
74;65;74;80;71;80;73;71;72;71;79;82;71;84;89;96;85;93;93
75;65;64;72;79;72;77;71;73;70;70;75;82;71;81;85;96;81;91
76;70;62;62;70;78;70;74;73;72;66;66;73;83;67;81;83;94;81
77;69;64;61;63;68;77;66;70;71;72;62;65;73;83;65;81;77;93
78;58;63;64;58;59;63;72;63;66;68;73;61;60;72;80;60;75;75
79;56;54;61;62;53;57;63;70;60;63;66;71;60;60;70;77;59;74
80;47;52;49;58;60;51;57;60;64;58;59;63;66;58;59;69;72;59
81;52;40;48;47;54;53;49;54;54;59;54;55;55;62;52;58;69;69
82;39;48;39;48;49;49;49;47;53;51;55;50;52;54;61;50;54;64
83;28;34;44;35;46;47;46;43;46;46;45;50;47;49;48;60;44;53
84;29;24;32;39;34;43;41;38;40;41;40;40;46;46;44;44;55;43
85;20;27;22;29;36;31;39;34;36;34;36;37;36;41;42;42;43;51
86;30;18;24;19;26;36;26;39;30;34;33;37;35;35;41;39;39;37
87;24;28;16;22;17;25;31;23;37;24;30;33;34;26;34;36;32;33
88;18;21;26;16;23;14;21;26;24;33;18;29;25;30;23;31;32;27
89;26;16;15;25;11;18;11;19;25;20;29;18;22;20;28;21;24;29
90;14;24;13;9;20;11;16;6;16;20;17;23;18;20;17;26;19;21
91;13;9;20;10;12;15;10;16;5;16;20;16;20;13;17;16;21;16
92;10;9;8;16;9;12;15;10;13;4;12;19;13;14;9;13;14;20
93;10;7;6;7;14;7;10;12;7;10;4;10;13;11;11;7;10;11
94;9;6;7;4;4;14;6;9;9;5;8;4;9;8;7;10;8;7
95;2;7;4;3;1;3;13;5;6;9;5;7;2;7;5;3;9;4
96;1;3;5;2;1;1;2;11;4;6;9;5;7;2;7;4;3;6
97;3;1;0;5;2;0;1;2;7;4;4;7;4;4;1;6;2;3
98;1;2;1;0;2;2;0;0;1;6;2;4;5;2;3;0;6;1
99;0;0;0;0;0;1;2;0;0;1;5;2;2;4;0;3;0;3
100 e oltre;1;1;1;1;1;0;0;1;0;0;1;3;4;2;4;2;5;3
Totale;9512;9479;9411;9377;9308;9321;9229;9208;9196;9178;9104;9070;9036;8985;8923;8890;8817;8736
Età/Anno;2002;2003;2004;2005;2006;2007;2008;2009;2010;2011;2012;2013;2014;2015;2016;2017;2018;2019
Età;Maschi
0;39;29;43;36;43;37;25;35;27;36;32;44;34;33;26;29;22;27
1;25;38;31;44;36;43;33;25;36;26;36;31;43;35;37;27;32;23
2;43;26;37;30;43;40;46;36;26;37;24;36;33;43;33;35;26;33
3;40;47;24;37;31;43;40;46;37;29;37;24;36;32;42;31;36;25
4;42;40;47;26;37;32;41;41;45;37;27;38;25;37;32;44;33;36
5;56;44;38;46;25;36;31;43;41;45;36;26;38;25;40;32;43;31
6;40;55;45;38;47;27;36;34;44;45;44;36;25;37;24;40;32;41
7;28;41;55;45;40;47;27;37;34;44;45;44;38;26;38;24;41;31
8;43;28;39;56;46;45;49;26;37;35;46;46;44;38;25;40;25;40
9;49;41;26;38;56;46;44;49;26;38;35;45;48;44;37;26;40;25
10;35;49;42;27;38;56;47;43;47;26;37;35;46;48;45;36;27;39
11;54;35;48;45;28;41;56;46;43;49;26;37;35;47;47;45;36;24
12;56;54;35;47;45;28;44;55;45;43;49;26;37;33;45;44;43;36
13;64;57;55;35;47;47;26;42;55;44;42;49;26;38;35;46;44;44
14;44;65;55;55;35;47;45;28;42;55;44;42;49;27;39;36;45;43
15;57;45;65;54;55;35;47;46;28;42;55;44;42;49;27;39;35;44
16;76;57;45;64;54;55;34;47;46;27;42;56;44;42;49;28;39;36
17;74;76;56;45;66;54;54;33;47;46;27;42;56;42;42;49;27;39
18;67;74;75;56;45;66;52;54;33;46;47;27;42;55;44;42;50;25
19;81;66;72;75;54;44;65;52;55;33;46;47;27;42;54;43;42;48
20;81;80;66;74;75;55;43;64;53;54;34;46;48;26;40;54;43;42
21;75;80;80;62;75;74;57;45;64;53;53;33;47;48;25;40;54;43
22;70;73;74;81;63;76;73;58;45;66;51;53;32;46;47;25;38;55
23;80;70;70;72;82;66;77;72;55;46;65;51;49;32;45;47;26;39
24;76;78;65;70;73;80;64;80;73;55;48;62;52;51;32;44;47;25
25;79;77;76;66;71;75;76;61;78;72;54;48;60;51;50;31;44;45
26;75;77;73;79;63;69;73;77;63;76;71;55;49;63;48;50;30;41
27;91;71;74;74;77;65;69;70;77;64;76;68;55;48;59;47;53;30
28;88;92;74;76;69;77;63;66;69;78;61;69;67;53;47;57;47;50
29;70;83;94;72;75;70;75;62;66;69;77;65;70;67;51;44;58;46
30;67;69;80;87;69;74;71;76;61;61;68;73;67;69;65;50;44;54
31;83;67;71;79;84;73;73;70;76;58;62;68;70;63;67;63;49;42
32;84;84;68;66;74;80;69;73;71;71;59;57;67;72;61;61;64;50
33;57;86;79;68;59;74;78;66;76;72;72;59;56;67;73;59;63;66
34;82;58;83;76;68;57;74;80;69;75;77;70;59;58;67;74;57;62
35;75;83;55;82;75;71;56;75;78;68;77;76;68;59;55;65;72;56
36;72;74;85;51;80;72;68;57;79;81;68;77;74;70;58;59;66;68
37;74;71;72;86;52;82;66;67;58;80;79;68;77;77;72;56;56;60
38;79;76;72;75;84;51;82;65;67;57;77;79;73;77;76;69;52;57
39;70;80;79;72;73;86;51;82;67;69;57;77;78;72;78;76;70;53
40;73;70;81;76;77;74;86;54;85;66;66;57;76;75;73;76;74;69
41;73;71;70;82;74;80;75;86;53;86;67;66;57;71;75;74;75;73
42;81;73;70;70;83;75;79;75;84;50;85;67;67;57;71;74;72;79
43;61;80;72;71;72;83;72;82;76;84;47;86;67;70;58;70;75;71
44;79;61;82;73;71;75;82;73;83;76;83;48;85;67;70;56;70;75
45;84;79;60;80;72;71;73;80;72;82;77;83;49;85;67;69;57;71
46;81;86;76;61;80;73;69;73;78;75;80;77;83;48;84;70;70;58
47;64;80;86;76;62;80;73;72;71;81;77;79;75;83;48;83;70;72
48;57;65;78;86;75;61;81;74;72;71;81;77;79;77;81;48;82;70
49;63;56;64;79;87;73;62;77;74;71;70;83;79;77;78;82;47;83
50;71;64;57;65;80;86;74;60;77;73;70;68;83;79;75;81;83;46
51;63;70;63;58;64;80;86;73;59;78;70;70;67;80;78;76;79;78
52;61;61;70;65;59;60;80;84;72;60;79;69;69;67;78;79;79;80
53;64;58;60;70;63;56;60;81;83;72;60;77;68;70;67;77;76;81
54;57;63;58;59;68;63;54;60;81;81;73;59;77;66;71;67;77;74
55;63;56;64;57;58;65;62;52;60;81;81;73;59;80;66;72;67;77
56;50;62;57;63;58;58;66;63;53;57;80;81;74;59;80;66;70;66
57;48;48;63;57;64;60;59;66;63;53;56;80;77;72;55;79;69;70
58;59;48;48;62;57;63;60;60;66;61;53;56;78;77;72;54;78;68
59;50;59;48;49;60;56;63;58;61;65;61;53;54;77;77;72;54;78
60;53;51;59;48;50;58;56;64;56;62;65;60;52;54;77;77;71;55
61;47;54;50;55;49;49;59;56;65;55;62;63;59;52;54;77;76;70
62;48;47;52;50;55;47;50;60;58;65;54;62;61;58;52;53;76;74
63;40;49;46;51;50;49;47;50;60;56;62;54;62;60;57;51;53;76
64;37;37;48;44;50;49;47;46;48;62;57;62;53;62;59;57;51;53
65;49;37;36;48;44;50;48;48;47;48;62;56;62;53;62;59;57;51
66;43;49;37;36;45;44;50;49;48;48;48;60;55;62;55;62;58;57
67;38;43;49;37;35;42;44;49;49;48;48;47;58;54;61;56;60;56
68;42;39;42;48;37;34;41;43;48;49;48;47;47;57;54;61;54;59
69;32;41;36;41;44;37;33;40;41;46;49;48;45;47;57;54;58;55
70;44;31;38;35;38;43;37;31;40;42;45;48;48;45;45;56;53;60
71;36;44;29;38;32;35;41;38;29;40;42;43;48;49;44;45;56;53
72;40;36;43;30;36;29;35;40;37;28;39;42;42;48;46;43;44;54
73;37;35;35;41;29;36;27;33;38;36;28;37;43;42;49;46;39;43
74;30;38;34;35;40;28;36;25;32;36;33;26;35;43;42;47;46;40
75;37;29;38;34;36;37;28;38;25;32;33;33;26;33;40;42;43;45
76;20;36;28;37;33;34;36;30;36;24;29;31;33;26;33;39;41;43
77;31;19;35;29;35;33;31;32;30;34;22;29;31;33;24;33;34;40
78;28;30;20;34;26;30;32;30;32;27;35;20;27;31;30;21;28;32
79;24;27;31;19;31;25;28;30;27;29;27;35;20;27;29;29;21;27
80;11;21;24;31;19;28;24;25;26;25;27;26;30;19;27;28;25;21
81;21;6;18;21;28;15;26;21;21;24;22;25;23;26;17;27;27;24
82;12;19;5;18;22;24;12;24;21;20;22;20;25;23;25;17;26;25
83;11;11;16;3;16;21;22;7;23;18;14;20;18;22;21;24;15;25
84;9;10;10;13;2;12;17;18;7;19;15;12;20;17;19;17;20;14
85;7;8;11;10;12;1;12;14;17;4;16;13;12;18;16;17;17;19
86;12;7;6;9;9;11;1;13;11;15;4;16;12;12;18;15;15;16
87;12;10;6;5;8;8;9;1;11;9;13;4;14;9;11;15;13;10
88;2;10;10;6;5;7;6;8;2;10;5;12;2;12;6;10;15;11
89;10;2;8;9;6;3;7;5;7;2;8;5;8;2;11;6;7;13
90;4;9;2;5;5;5;3;4;4;5;2;4;5;7;2;11;5;5
91;3;2;9;1;5;3;5;2;3;3;5;2;2;4;6;2;8;3
92;1;1;2;6;1;4;3;5;1;2;2;4;1;1;3;5;2;8
93;2;0;1;2;6;0;3;3;3;1;2;1;4;1;1;3;4;2
94;4;2;0;1;1;6;0;3;2;2;1;2;0;2;1;1;3;3
95;0;2;1;0;0;1;6;0;3;2;2;0;1;0;1;0;1;2
96;0;0;2;0;0;0;1;5;0;3;2;2;0;1;0;0;0;1
97;1;0;0;2;0;0;0;1;4;0;3;1;2;0;0;0;0;0
98;0;1;0;0;1;0;0;0;1;3;0;3;1;0;0;0;0;0
99;0;0;0;0;0;1;0;0;0;1;2;0;1;1;0;0;0;0
100 e oltre;1;1;1;1;1;0;0;0;0;0;1;1;1;1;1;0;0;0
Totale;4722;4700;4668;4659;4638;4627;4579;4578;4575;4566;4535;4514;4498;4493;4457;4438;4397;4358
Età/Anno;2002;2003;2004;2005;2006;2007;2008;2009;2010;2011;2012;2013;2014;2015;2016;2017;2018;2019
Età;Femmine
0;39;36;32;31;25;38;27;32;25;36;30;33;31;27;29;33;26;21
1;35;40;36;32;32;27;38;28;33;25;32;29;32;32;26;29;34;26
2;43;37;40;35;30;33;26;39;29;34;22;35;31;32;34;26;28;34
3;30;42;36;41;34;30;35;28;37;29;34;22;35;32;31;36;24;28
4;30;30;43;36;42;35;30;32;28;39;28;33;23;35;31;31;36;24
5;37;32;30;43;36;41;35;30;32;29;38;27;33;23;33;31;32;35
6;50;37;31;31;44;38;40;34;30;31;29;39;28;32;23;34;32;33
7;33;49;36;32;29;44;36;40;35;32;31;28;39;27;32;23;34;33
8;30;34;50;35;31;29;43;39;40;34;31;31;27;39;27;32;23;34
9;34;30;37;51;35;31;30;43;40;40;34;31;33;28;39;27;33;22
10;48;34;30;40;50;35;33;30;44;40;40;33;32;33;29;38;27;35
11;57;49;35;30;41;52;34;33;30;44;40;40;32;32;33;29;37;27
12;38;57;47;35;31;42;51;35;33;30;45;39;39;32;32;34;29;35
13;46;39;54;48;35;30;42;51;37;34;30;45;39;39;32;31;35;29
14;44;46;40;54;49;38;29;41;50;38;32;30;45;39;39;32;31;37
15;52;44;47;40;50;49;38;29;40;50;37;32;30;46;39;39;34;31
16;66;52;44;49;40;50;50;38;29;39;50;37;31;28;46;40;39;34
17;62;66;53;42;49;43;48;48;38;30;40;50;37;32;28;46;40;41
18;60;60;67;53;40;50;42;48;48;38;31;40;50;35;31;30;46;41
19;62;59;58;67;53;41;50;41;49;50;37;30;40;51;35;31;30;47
20;63;60;60;57;68;51;41;49;42;48;48;35;30;40;51;35;32;29
21;65;63;61;60;59;66;51;41;50;41;50;47;38;30;38;50;37;30
22;79;65;63;61;59;61;65;52;42;50;40;48;47;35;29;36;50;40
23;73;75;65;62;58;60;61;64;53;40;49;42;49;46;36;31;36;47
24;81;74;76;65;60;59;56;60;62;54;41;49;43;49;45;36;32;37
25;70;81;75;76;62;59;60;54;59;62;53;39;48;43;49;44;34;30
26;86;68;81;72;78;64;59;56;52;60;60;53;41;44;43;52;44;30
27;73;84;66;78;70;81;64;59;56;53;58;54;50;37;45;39;49;46
28;85;75;81;66;76;71;78;63;57;52;50;61;53;50;32;39;38;47
29;58;88;76;79;60;74;72;80;67;55;50;50;56;56;53;32;41;35
30;90;63;86;76;76;58;66;73;76;66;54;48;50;55;54;54;34;42
31;62;88;61;85;75;73;59;68;72;78;64;52;53;51;56;53;50;30
32;81;63;83;58;83;71;71;62;64;72;74;63;53;56;52;57;54;47
33;64;81;62;80;59;80;74;69;64;62;72;73;67;52;56;52;56;56
34;68;66;79;60;79;58;82;68;74;58;66;74;69;62;55;57;46;56
35;76;68;61;85;59;79;59;81;69;73;56;66;76;72;59;52;55;43
36;72;76;66;62;86;55;76;57;87;71;73;55;64;76;69;60;52;51
37;80;70;79;64;58;87;55;76;57;87;70;72;55;62;76;67;62;51
38;90;81;70;79;65;58;87;55;76;55;86;66;72;56;62;74;66;60
39;76;92;82;72;76;66;57;85;54;74;55;85;68;75;54;62;71;68
40;89;76;90;80;69;78;65;57;82;54;73;54;86;67;74;52;59;69
41;69;87;76;89;80;70;78;66;58;84;52;73;53;85;67;71;54;62
42;82;69;85;75;89;80;70;76;67;59;84;54;72;55;84;68;73;56
43;74;80;70;86;75;89;77;70;76;67;58;84;58;71;54;85;68;74
44;75;73;79;69;86;75;88;78;70;73;67;58;82;58;71;53;84;68
45;88;75;73;79;68;87;75;88;75;70;74;69;58;81;57;71;54;85
46;73;88;75;73;76;67;87;77;89;75;71;72;69;58;81;55;70;53
47;58;73;87;74;72;77;66;87;77;89;75;71;72;67;58;81;54;73
48;64;57;72;87;76;74;73;64;84;78;89;75;71;73;66;60;81;54
49;62;64;59;71;88;77;73;72;64;83;77;89;75;70;75;66;54;82
50;45;62;62;57;72;86;76;71;71;64;81;77;90;76;69;74;67;54
51;56;44;62;58;57;72;86;74;70;70;63;81;77;89;73;70;74;65
52;60;57;45;62;59;59;72;87;75;70;71;62;79;75;90;73;71;74
53;43;59;57;45;64;59;59;71;85;76;70;71;61;79;76;87;74;72
54;73;43;59;58;43;63;59;59;71;85;76;72;72;63;79;77;88;72
55;62;73;43;58;58;44;64;60;59;73;85;76;72;70;63;80;77;89
56;49;61;73;42;59;57;44;64;61;59;73;84;75;71;69;63;80;74
57;54;50;62;73;42;56;58;42;65;61;59;72;84;75;72;69;63;79
58;49;54;50;63;72;42;56;57;43;63;61;59;71;83;75;72;69;63
59;50;48;54;49;63;72;42;56;57;43;63;61;58;70;84;74;70;69
60;56;49;48;54;49;63;69;43;56;57;43;64;61;58;70;84;73;70
61;52;56;47;48;54;49;63;69;43;56;56;43;65;61;58;69;83;73
62;55;52;56;46;49;54;48;62;68;44;57;56;43;65;61;58;69;83
63;48;55;51;55;46;51;54;48;62;68;44;58;54;41;65;62;58;71
64;53;48;56;51;55;44;52;54;48;61;69;44;58;54;42;65;61;58
65;48;53;48;54;49;57;45;51;54;47;59;69;43;57;54;43;63;60
66;47;48;52;48;54;49;57;44;51;53;46;59;69;42;58;52;42;61
67;54;47;48;53;47;53;48;59;44;51;53;46;59;69;42;59;53;40
68;37;54;45;48;52;48;51;47;59;44;51;52;44;60;69;42;58;53
69;49;38;53;44;48;51;46;50;47;57;45;51;52;43;59;69;42;56
70;41;50;37;51;41;47;51;46;51;49;56;44;50;52;43;58;69;42
71;37;41;49;37;47;41;46;51;47;51;49;56;41;48;52;43;57;68
72;47;37;41;51;36;47;41;46;50;46;50;47;56;40;48;52;43;54
73;36;47;38;41;49;36;47;41;44;50;46;49;47;56;39;48;52;42
74;35;36;46;36;40;45;35;47;39;43;49;45;49;46;54;38;47;53
75;28;35;34;45;36;40;43;35;45;38;42;49;45;48;45;54;38;46
76;50;26;34;33;45;36;38;43;36;42;37;42;50;41;48;44;53;38
77;38;45;26;34;33;44;35;38;41;38;40;36;42;50;41;48;43;53
78;30;33;44;24;33;33;40;33;34;41;38;41;33;41;50;39;47;43
79;32;27;30;43;22;32;35;40;33;34;39;36;40;33;41;48;38;47
80;36;31;25;27;41;23;33;35;38;33;32;37;36;39;32;41;47;38
81;31;34;30;26;26;38;23;33;33;35;32;30;32;36;35;31;42;45
82;27;29;34;30;27;25;37;23;32;31;33;30;27;31;36;33;28;39
83;17;23;28;32;30;26;24;36;23;28;31;30;29;27;27;36;29;28
84;20;14;22;26;32;31;24;20;33;22;25;28;26;29;25;27;35;29
85;13;19;11;19;24;30;27;20;19;30;20;24;24;23;26;25;26;32
86;18;11;18;10;17;25;25;26;19;19;29;21;23;23;23;24;24;21
87;12;18;10;17;9;17;22;22;26;15;17;29;20;17;23;21;19;23
88;16;11;16;10;18;7;15;18;22;23;13;17;23;18;17;21;17;16
89;16;14;7;16;5;15;4;14;18;18;21;13;14;18;17;15;17;16
90;10;15;11;4;15;6;13;2;12;15;15;19;13;13;15;15;14;16
91;10;7;11;9;7;12;5;14;2;13;15;14;18;9;11;14;13;13
92;9;8;6;10;8;8;12;5;12;2;10;15;12;13;6;8;12;12
93;8;7;5;5;8;7;7;9;4;9;2;9;9;10;10;4;6;9
94;5;4;7;3;3;8;6;6;7;3;7;2;9;6;6;9;5;4
95;2;5;3;3;1;2;7;5;3;7;3;7;1;7;4;3;8;2
96;1;3;3;2;1;1;1;6;4;3;7;3;7;1;7;4;3;5
97;2;1;0;3;2;0;1;1;3;4;1;6;2;4;1;6;2;3
98;1;1;1;0;1;2;0;0;0;3;2;1;4;2;3;0;6;1
99;0;0;0;0;0;0;2;0;0;0;3;2;1;3;0;3;0;3
100 e oltre;0;0;0;0;0;0;0;1;0;0;0;2;3;1;3;2;5;3
Totale;4790;4779;4743;4718;4670;4694;4650;4630;4621;4612;4569;4556;4538;4492;4466;4452;4420;4378

"Ricostruzione della popolazione intercensuaria - Popolazione al 1° gennaio per età"
"Cittadinanza straniera - Comune: Serramanna"
Età/Anno;2002;2003;2004;2005;2006;2007;2008;2009;2010;2011;2012;2013;2014;2015;2016;2017;2018;2019
Età;Totale
0;0;2;0;1;0;1;1;1;3;1;1;1;2;3;3;1;0;4
1;0;0;0;0;1;0;1;1;1;3;2;2;3;1;4;3;0;0
2;0;0;0;0;0;1;0;1;2;1;2;1;3;2;1;3;2;0
3;0;0;0;0;0;0;1;1;1;3;4;2;1;3;2;0;3;2
4;0;1;0;1;0;1;0;1;1;4;2;4;3;1;3;1;0;1
5;0;0;0;0;1;0;1;0;1;1;3;2;4;2;1;3;1;0
6;0;1;0;0;0;2;0;1;0;1;1;3;2;3;2;1;3;1
7;0;0;0;0;0;0;4;0;1;0;1;1;3;2;3;3;1;2
8;1;0;0;0;1;0;1;4;0;3;0;1;2;3;2;3;3;0
9;0;2;0;0;0;1;0;1;3;1;3;0;1;2;4;1;3;3
10;0;0;1;1;0;0;1;0;1;3;1;3;0;1;3;3;1;2
11;0;0;0;1;3;0;0;1;0;1;3;1;2;0;1;3;3;0
12;1;1;0;0;1;3;1;0;1;0;1;3;1;2;0;1;2;3
13;0;1;0;0;1;1;3;1;0;1;0;1;3;1;3;1;1;2
14;0;0;1;0;0;1;0;2;1;1;2;0;1;3;2;3;0;0
15;0;0;0;1;1;0;2;0;2;1;1;2;0;1;3;3;2;0
16;0;0;0;0;2;1;0;2;0;1;1;1;2;0;1;3;3;2
17;0;0;0;0;1;2;0;0;2;0;1;2;1;2;0;1;3;3
18;0;0;0;0;1;1;0;0;1;3;0;1;2;1;3;0;1;2
19;0;0;0;0;0;1;0;1;0;0;3;0;1;2;2;3;0;1
20;1;0;0;1;0;0;3;1;1;1;1;3;0;1;4;2;3;0
21;0;0;0;0;1;0;2;3;2;1;1;1;3;0;1;4;2;3
22;0;0;0;0;0;1;1;3;2;2;1;1;1;3;0;1;4;1
23;1;0;0;1;0;0;3;1;2;2;3;1;2;1;2;0;1;4
24;0;1;0;0;1;0;0;3;1;2;4;4;2;2;2;2;0;0
25;3;0;2;0;0;1;0;0;3;2;2;5;3;1;1;2;2;0
26;2;3;0;1;0;0;3;1;0;5;2;1;4;3;3;3;3;2
27;0;2;3;0;0;0;1;3;2;2;5;3;3;4;3;4;4;3
28;0;3;2;5;0;0;2;2;5;3;1;6;5;3;4;3;3;3
29;0;3;3;2;1;0;0;1;5;8;7;2;7;5;4;4;2;4
30;2;3;3;5;1;3;3;0;3;7;8;6;2;7;6;4;5;2
31;2;2;2;3;4;1;7;3;0;3;8;8;9;2;8;4;4;7
32;0;3;3;4;4;4;4;7;1;3;3;8;5;6;3;6;4;4
33;1;0;1;3;5;4;4;3;4;1;4;3;9;6;6;1;8;4
34;0;1;0;0;3;6;4;3;4;6;1;4;3;8;6;6;2;8
35;0;0;1;1;0;4;5;2;4;3;6;2;3;3;6;5;4;3
36;0;0;0;1;1;0;4;4;2;6;3;7;3;6;4;5;5;4
37;0;0;0;2;1;2;0;4;4;2;7;3;9;3;6;4;6;6
38;0;1;1;0;2;1;2;0;4;4;2;7;8;10;3;3;5;6
39;2;0;0;0;0;2;5;2;0;3;4;2;5;6;9;3;3;4
40;0;2;0;0;0;0;2;6;2;1;3;4;1;5;6;10;3;3
41;1;0;1;1;0;0;1;3;4;2;1;3;4;1;5;6;7;3
42;0;1;0;1;1;0;0;1;3;5;2;1;2;4;1;4;6;6
43;0;0;0;0;1;1;0;0;0;3;6;2;1;2;4;1;4;7
44;0;0;0;1;0;1;1;0;0;0;3;7;1;1;3;5;1;4
45;1;0;0;0;1;0;3;1;0;0;0;2;7;1;3;3;4;0
46;0;1;0;1;1;1;0;3;1;1;0;0;2;6;3;2;3;4
47;1;0;1;0;1;1;1;0;2;1;1;0;0;2;7;2;2;3
48;1;1;0;2;0;1;0;1;0;2;1;3;0;0;2;6;2;1
49;0;3;1;0;1;0;2;1;1;0;2;1;5;0;0;3;6;2
50;1;0;2;1;0;1;1;2;1;1;0;2;1;6;0;1;3;6
51;1;1;0;1;1;0;2;1;2;1;0;0;2;1;4;0;3;3
52;0;1;1;0;0;1;0;2;2;2;1;0;1;2;1;4;0;3
53;0;0;1;1;0;1;1;1;3;1;2;0;1;1;2;1;3;1
54;0;0;0;1;1;0;1;1;1;1;1;2;0;1;1;2;1;3
55;1;0;0;0;1;1;0;1;1;2;1;1;2;0;1;1;2;1
56;0;1;0;0;0;1;0;0;1;1;2;1;1;1;0;1;1;2
57;0;0;1;0;0;0;1;1;0;1;1;3;2;1;1;0;1;1
58;0;0;0;1;0;0;0;1;1;0;1;1;2;2;2;1;0;2
59;0;0;0;0;1;0;0;0;1;0;0;1;1;2;2;3;1;2
60;0;0;0;0;0;1;0;0;0;1;0;1;2;1;2;1;4;1
61;0;0;0;0;0;0;0;0;0;0;1;0;3;2;3;2;1;3
62;0;0;0;0;0;0;0;0;0;0;0;1;0;3;3;3;2;1
63;0;0;0;0;0;0;0;0;0;0;0;0;1;0;3;3;3;2
64;0;0;0;0;0;0;0;0;0;0;0;0;1;1;0;2;3;1
65;0;0;0;0;0;0;0;0;0;0;0;0;0;0;2;0;1;3
66;0;0;0;0;0;0;0;0;0;0;0;1;0;0;1;3;0;0
67;0;0;0;0;0;0;0;0;0;0;0;0;2;0;0;2;3;0
68;0;0;0;0;0;0;0;0;0;0;0;0;0;2;0;0;2;1
69;0;0;0;0;0;0;0;0;1;0;0;0;0;0;2;0;0;0
70;0;0;0;0;0;0;0;0;0;1;0;0;0;0;0;2;0;0
71;0;0;0;0;0;0;0;0;0;0;0;0;0;0;0;0;2;0
72;1;0;0;0;0;0;0;0;0;0;0;0;0;0;0;0;0;1
73;0;1;0;0;0;0;0;0;0;0;0;0;0;0;0;0;0;0
74;0;0;1;0;0;0;0;0;0;0;0;0;0;0;0;0;0;0
75;0;0;0;1;0;0;0;0;0;0;0;0;0;0;0;0;0;0
76;0;0;0;0;1;0;0;0;0;0;0;0;0;0;0;0;0;0
77;0;0;0;0;0;1;0;0;0;0;0;0;0;0;0;0;0;0
78;0;0;0;0;0;0;1;0;0;0;0;0;0;0;0;0;0;0
79;0;0;0;0;0;0;0;1;0;0;0;0;0;0;0;0;0;0
80;0;0;0;0;0;0;0;0;1;0;0;0;0;0;0;0;0;0
81;0;0;0;0;0;0;0;0;0;1;0;0;0;0;0;0;0;0
82;0;0;0;0;0;0;0;0;0;0;1;0;0;0;0;0;0;0
83;0;0;0;0;0;0;0;0;0;0;0;1;0;0;0;0;0;0
84;0;0;0;0;0;0;0;0;0;0;0;0;1;0;0;0;0;0
85;0;0;0;0;0;0;0;0;0;0;0;0;0;1;0;0;0;0
86;0;0;0;0;0;0;0;0;0;0;0;0;0;0;1;0;0;0
87;0;0;0;0;0;0;0;0;0;0;0;0;0;0;0;1;0;0
88;0;0;0;0;0;0;0;0;0;0;0;0;0;0;0;0;1;0
89;0;0;0;0;0;0;0;0;0;0;0;0;0;0;0;0;0;1
90;0;0;0;0;0;0;0;0;0;0;0;0;0;0;0;0;0;0
91;0;0;0;0;0;0;0;0;0;0;0;0;0;0;0;0;0;0
92;0;0;0;0;0;0;0;0;0;0;0;0;0;0;0;0;0;0
93;0;0;0;0;0;0;0;0;0;0;0;0;0;0;0;0;0;0
94;0;0;0;0;0;0;0;0;0;0;0;0;0;0;0;0;0;0
95;0;0;0;0;0;0;0;0;0;0;0;0;0;0;0;0;0;0
96;0;0;0;0;0;0;0;0;0;0;0;0;0;0;0;0;0;0
97;0;0;0;0;0;0;0;0;0;0;0;0;0;0;0;0;0;0
98;0;0;0;0;0;0;0;0;0;0;0;0;0;0;0;0;0;0
99;0;0;0;0;0;0;0;0;0;0;0;0;0;0;0;0;0;0
100 e oltre;0;0;0;0;0;0;0;0;0;0;0;0;0;0;0;0;0;0
Totale;24;42;32;46;48;57;86;91;98;123;135;146;169;164;189;181;177;167
Età/Anno;2002;2003;2004;2005;2006;2007;2008;2009;2010;2011;2012;2013;2014;2015;2016;2017;2018;2019
Età;Maschi
0;0;2;0;0;0;1;1;0;0;0;0;0;2;2;1;0;0;3
1;0;0;0;0;0;0;1;1;0;0;1;0;0;1;2;1;0;0
2;0;0;0;0;0;0;0;1;1;0;0;0;1;0;1;1;0;0
3;0;0;0;0;0;0;0;1;1;1;2;0;0;1;0;0;1;0
4;0;0;0;0;0;1;0;0;1;3;1;2;0;0;1;0;0;0
5;0;0;0;0;0;0;1;0;0;1;2;1;2;0;0;1;0;0
6;0;1;0;0;0;1;0;1;0;0;1;2;1;1;0;0;1;0
7;0;0;0;0;0;0;2;0;1;0;0;1;2;1;1;1;0;1
8;0;0;0;0;1;0;0;2;0;2;0;0;1;2;1;1;1;0
9;0;1;0;0;0;1;0;0;1;0;2;0;0;1;3;1;1;1
10;0;0;0;0;0;0;1;0;0;1;0;2;0;0;1;2;1;0
11;0;0;0;0;0;0;0;1;0;0;1;0;2;0;0;1;2;0
12;0;0;0;0;0;0;0;0;1;0;0;1;0;2;0;0;0;2
13;0;0;0;0;0;0;0;0;0;1;0;0;1;0;3;1;0;0
14;0;0;0;0;0;0;0;0;0;1;2;0;0;1;0;3;0;0
15;0;0;0;0;1;0;0;0;0;0;1;2;0;0;1;0;2;0
16;0;0;0;0;0;1;0;0;0;0;0;1;2;0;0;1;0;2
17;0;0;0;0;1;0;0;0;0;0;0;0;1;2;0;0;1;1
18;0;0;0;0;1;1;0;0;1;0;0;0;0;1;2;0;0;1
19;0;0;0;0;0;1;0;0;0;0;0;0;0;0;1;2;0;0
20;0;0;0;0;0;0;1;1;0;1;0;0;0;0;2;1;2;0
21;0;0;0;0;0;0;2;1;2;0;1;0;0;0;0;2;1;2
22;0;0;0;0;0;0;1;2;0;2;0;1;0;0;0;0;2;1
23;0;0;0;0;0;0;2;1;2;0;3;0;1;0;0;0;0;2
24;0;0;0;0;0;0;0;2;1;2;1;4;1;1;2;0;0;0
25;1;0;0;0;0;0;0;0;2;2;0;2;3;0;0;2;0;0
26;0;1;0;0;0;0;2;1;0;3;2;0;1;3;1;2;2;0
27;0;0;2;0;0;0;0;2;2;2;3;2;1;1;3;2;3;2
28;0;0;0;3;0;0;1;0;3;3;1;4;2;1;1;3;2;2
29;0;0;0;0;1;0;0;1;0;4;7;1;5;2;2;2;2;3
30;1;1;0;1;0;1;0;0;1;1;5;6;1;5;2;2;2;2
31;0;1;1;0;1;0;5;0;0;2;1;5;7;0;4;2;2;4
32;0;0;1;1;2;1;3;5;0;3;2;1;3;4;1;4;2;3
33;1;0;0;1;0;2;1;3;3;0;3;2;1;4;4;0;4;2
34;0;1;0;0;1;0;2;1;2;3;0;3;2;1;4;5;0;4
35;0;0;1;1;0;2;1;1;3;1;3;1;2;2;1;3;3;1
36;0;0;0;1;1;0;2;1;1;2;0;3;2;3;3;1;3;3
37;0;0;0;1;0;1;0;2;1;1;1;0;4;2;3;3;3;4
38;0;1;0;0;1;0;1;0;2;1;1;1;3;4;2;1;4;4
39;1;0;0;0;0;1;1;1;0;2;1;1;1;3;4;2;1;3
40;0;1;0;0;0;0;1;2;1;1;2;1;0;1;3;5;2;1
41;0;0;0;0;0;0;1;3;1;1;1;3;1;0;1;3;4;2
42;0;0;0;0;0;0;0;1;3;1;1;1;2;1;0;1;3;4
43;0;0;0;0;0;0;0;0;0;2;2;1;0;2;1;0;1;4
44;0;0;0;0;0;0;0;0;0;0;2;3;1;0;2;2;0;1
45;0;0;0;0;0;0;2;0;0;0;0;1;3;1;2;2;2;0
46;0;0;0;0;1;0;0;2;0;1;0;0;1;2;2;2;2;2
47;1;0;0;0;0;1;0;0;2;0;1;0;0;1;2;2;2;2
48;1;1;0;1;0;0;0;0;0;2;0;3;0;0;1;2;1;1
49;0;3;1;0;1;0;0;0;0;0;2;0;4;0;0;2;2;1
50;0;0;2;1;0;1;0;0;0;0;0;2;0;4;0;0;2;2
51;0;0;0;1;1;0;1;0;0;0;0;0;2;0;2;0;2;2
52;0;0;0;0;0;1;0;1;0;0;0;0;0;2;0;2;0;2
53;0;0;0;0;0;1;1;1;1;0;0;0;1;0;2;0;2;0
54;0;0;0;0;0;0;1;1;1;0;0;0;0;1;0;2;0;2
55;1;0;0;0;0;0;0;1;1;1;0;0;0;0;1;0;2;0
56;0;1;0;0;0;0;0;0;1;1;1;0;0;0;0;1;0;2
57;0;0;1;0;0;0;0;0;0;1;1;1;1;0;0;0;1;0
58;0;0;0;1;0;0;0;0;0;0;1;1;1;1;0;0;0;2
59;0;0;0;0;1;0;0;0;0;0;0;1;1;1;1;0;0;1
60;0;0;0;0;0;1;0;0;0;0;0;0;2;1;1;0;0;0
61;0;0;0;0;0;0;0;0;0;0;0;0;0;2;1;1;0;1
62;0;0;0;0;0;0;0;0;0;0;0;0;0;0;2;1;1;0
63;0;0;0;0;0;0;0;0;0;0;0;0;1;0;0;2;1;1
64;0;0;0;0;0;0;0;0;0;0;0;0;1;1;0;0;2;1
65;0;0;0;0;0;0;0;0;0;0;0;0;0;0;1;0;0;2
66;0;0;0;0;0;0;0;0;0;0;0;0;0;0;1;1;0;0
67;0;0;0;0;0;0;0;0;0;0;0;0;0;0;0;2;1;0
68;0;0;0;0;0;0;0;0;0;0;0;0;0;0;0;0;2;1
69;0;0;0;0;0;0;0;0;0;0;0;0;0;0;0;0;0;0
70;0;0;0;0;0;0;0;0;0;0;0;0;0;0;0;0;0;0
71;0;0;0;0;0;0;0;0;0;0;0;0;0;0;0;0;0;0
72;1;0;0;0;0;0;0;0;0;0;0;0;0;0;0;0;0;0
73;0;1;0;0;0;0;0;0;0;0;0;0;0;0;0;0;0;0
74;0;0;1;0;0;0;0;0;0;0;0;0;0;0;0;0;0;0
75;0;0;0;1;0;0;0;0;0;0;0;0;0;0;0;0;0;0
76;0;0;0;0;1;0;0;0;0;0;0;0;0;0;0;0;0;0
77;0;0;0;0;0;1;0;0;0;0;0;0;0;0;0;0;0;0
78;0;0;0;0;0;0;1;0;0;0;0;0;0;0;0;0;0;0
79;0;0;0;0;0;0;0;1;0;0;0;0;0;0;0;0;0;0
80;0;0;0;0;0;0;0;0;1;0;0;0;0;0;0;0;0;0
81;0;0;0;0;0;0;0;0;0;1;0;0;0;0;0;0;0;0
82;0;0;0;0;0;0;0;0;0;0;1;0;0;0;0;0;0;0
83;0;0;0;0;0;0;0;0;0;0;0;1;0;0;0;0;0;0
84;0;0;0;0;0;0;0;0;0;0;0;0;1;0;0;0;0;0
85;0;0;0;0;0;0;0;0;0;0;0;0;0;1;0;0;0;0
86;0;0;0;0;0;0;0;0;0;0;0;0;0;0;1;0;0;0
87;0;0;0;0;0;0;0;0;0;0;0;0;0;0;0;1;0;0
88;0;0;0;0;0;0;0;0;0;0;0;0;0;0;0;0;1;0
89;0;0;0;0;0;0;0;0;0;0;0;0;0;0;0;0;0;1
90;0;0;0;0;0;0;0;0;0;0;0;0;0;0;0;0;0;0
91;0;0;0;0;0;0;0;0;0;0;0;0;0;0;0;0;0;0
92;0;0;0;0;0;0;0;0;0;0;0;0;0;0;0;0;0;0
93;0;0;0;0;0;0;0;0;0;0;0;0;0;0;0;0;0;0
94;0;0;0;0;0;0;0;0;0;0;0;0;0;0;0;0;0;0
95;0;0;0;0;0;0;0;0;0;0;0;0;0;0;0;0;0;0
96;0;0;0;0;0;0;0;0;0;0;0;0;0;0;0;0;0;0
97;0;0;0;0;0;0;0;0;0;0;0;0;0;0;0;0;0;0
98;0;0;0;0;0;0;0;0;0;0;0;0;0;0;0;0;0;0
99;0;0;0;0;0;0;0;0;0;0;0;0;0;0;0;0;0;0
100 e oltre;0;0;0;0;0;0;0;0;0;0;0;0;0;0;0;0;0;0
Totale;8;16;10;14;16;21;39;45;44;57;63;68;78;73;84;87;84;91
Età/Anno;2002;2003;2004;2005;2006;2007;2008;2009;2010;2011;2012;2013;2014;2015;2016;2017;2018;2019
Età;Femmine
0;0;0;0;1;0;0;0;1;3;1;1;1;0;1;2;1;0;1
1;0;0;0;0;1;0;0;0;1;3;1;2;3;0;2;2;0;0
2;0;0;0;0;0;1;0;0;1;1;2;1;2;2;0;2;2;0
3;0;0;0;0;0;0;1;0;0;2;2;2;1;2;2;0;2;2
4;0;1;0;1;0;0;0;1;0;1;1;2;3;1;2;1;0;1
5;0;0;0;0;1;0;0;0;1;0;1;1;2;2;1;2;1;0
6;0;0;0;0;0;1;0;0;0;1;0;1;1;2;2;1;2;1
7;0;0;0;0;0;0;2;0;0;0;1;0;1;1;2;2;1;1
8;1;0;0;0;0;0;1;2;0;1;0;1;1;1;1;2;2;0
9;0;1;0;0;0;0;0;1;2;1;1;0;1;1;1;0;2;2
10;0;0;1;1;0;0;0;0;1;2;1;1;0;1;2;1;0;2
11;0;0;0;1;3;0;0;0;0;1;2;1;0;0;1;2;1;0
12;1;1;0;0;1;3;1;0;0;0;1;2;1;0;0;1;2;1
13;0;1;0;0;1;1;3;1;0;0;0;1;2;1;0;0;1;2
14;0;0;1;0;0;1;0;2;1;0;0;0;1;2;2;0;0;0
15;0;0;0;1;0;0;2;0;2;1;0;0;0;1;2;3;0;0
16;0;0;0;0;2;0;0;2;0;1;1;0;0;0;1;2;3;0
17;0;0;0;0;0;2;0;0;2;0;1;2;0;0;0;1;2;2
18;0;0;0;0;0;0;0;0;0;3;0;1;2;0;1;0;1;1
19;0;0;0;0;0;0;0;1;0;0;3;0;1;2;1;1;0;1
20;1;0;0;1;0;0;2;0;1;0;1;3;0;1;2;1;1;0
21;0;0;0;0;1;0;0;2;0;1;0;1;3;0;1;2;1;1
22;0;0;0;0;0;1;0;1;2;0;1;0;1;3;0;1;2;0
23;1;0;0;1;0;0;1;0;0;2;0;1;1;1;2;0;1;2
24;0;1;0;0;1;0;0;1;0;0;3;0;1;1;0;2;0;0
25;2;0;2;0;0;1;0;0;1;0;2;3;0;1;1;0;2;0
26;2;2;0;1;0;0;1;0;0;2;0;1;3;0;2;1;1;2
27;0;2;1;0;0;0;1;1;0;0;2;1;2;3;0;2;1;1
28;0;3;2;2;0;0;1;2;2;0;0;2;3;2;3;0;1;1
29;0;3;3;2;0;0;0;0;5;4;0;1;2;3;2;2;0;1
30;1;2;3;4;1;2;3;0;2;6;3;0;1;2;4;2;3;0
31;2;1;1;3;3;1;2;3;0;1;7;3;2;2;4;2;2;3
32;0;3;2;3;2;3;1;2;1;0;1;7;2;2;2;2;2;1
33;0;0;1;2;5;2;3;0;1;1;1;1;8;2;2;1;4;2
34;0;0;0;0;2;6;2;2;2;3;1;1;1;7;2;1;2;4
35;0;0;0;0;0;2;4;1;1;2;3;1;1;1;5;2;1;2
36;0;0;0;0;0;0;2;3;1;4;3;4;1;3;1;4;2;1
37;0;0;0;1;1;1;0;2;3;1;6;3;5;1;3;1;3;2
38;0;0;1;0;1;1;1;0;2;3;1;6;5;6;1;2;1;2
39;1;0;0;0;0;1;4;1;0;1;3;1;4;3;5;1;2;1
40;0;1;0;0;0;0;1;4;1;0;1;3;1;4;3;5;1;2
41;1;0;1;1;0;0;0;0;3;1;0;0;3;1;4;3;3;1
42;0;1;0;1;1;0;0;0;0;4;1;0;0;3;1;3;3;2
43;0;0;0;0;1;1;0;0;0;1;4;1;1;0;3;1;3;3
44;0;0;0;1;0;1;1;0;0;0;1;4;0;1;1;3;1;3
45;1;0;0;0;1;0;1;1;0;0;0;1;4;0;1;1;2;0
46;0;1;0;1;0;1;0;1;1;0;0;0;1;4;1;0;1;2
47;0;0;1;0;1;0;1;0;0;1;0;0;0;1;5;0;0;1
48;0;0;0;1;0;1;0;1;0;0;1;0;0;0;1;4;1;0
49;0;0;0;0;0;0;2;1;1;0;0;1;1;0;0;1;4;1
50;1;0;0;0;0;0;1;2;1;1;0;0;1;2;0;1;1;4
51;1;1;0;0;0;0;1;1;2;1;0;0;0;1;2;0;1;1
52;0;1;1;0;0;0;0;1;2;2;1;0;1;0;1;2;0;1
53;0;0;1;1;0;0;0;0;2;1;2;0;0;1;0;1;1;1
54;0;0;0;1;1;0;0;0;0;1;1;2;0;0;1;0;1;1
55;0;0;0;0;1;1;0;0;0;1;1;1;2;0;0;1;0;1
56;0;0;0;0;0;1;0;0;0;0;1;1;1;1;0;0;1;0
57;0;0;0;0;0;0;1;1;0;0;0;2;1;1;1;0;0;1
58;0;0;0;0;0;0;0;1;1;0;0;0;1;1;2;1;0;0
59;0;0;0;0;0;0;0;0;1;0;0;0;0;1;1;3;1;1
60;0;0;0;0;0;0;0;0;0;1;0;1;0;0;1;1;4;1
61;0;0;0;0;0;0;0;0;0;0;1;0;3;0;2;1;1;2
62;0;0;0;0;0;0;0;0;0;0;0;1;0;3;1;2;1;1
63;0;0;0;0;0;0;0;0;0;0;0;0;0;0;3;1;2;1
64;0;0;0;0;0;0;0;0;0;0;0;0;0;0;0;2;1;0
65;0;0;0;0;0;0;0;0;0;0;0;0;0;0;1;0;1;1
66;0;0;0;0;0;0;0;0;0;0;0;1;0;0;0;2;0;0
67;0;0;0;0;0;0;0;0;0;0;0;0;2;0;0;0;2;0
68;0;0;0;0;0;0;0;0;0;0;0;0;0;2;0;0;0;0
69;0;0;0;0;0;0;0;0;1;0;0;0;0;0;2;0;0;0
70;0;0;0;0;0;0;0;0;0;1;0;0;0;0;0;2;0;0
71;0;0;0;0;0;0;0;0;0;0;0;0;0;0;0;0;2;0
72;0;0;0;0;0;0;0;0;0;0;0;0;0;0;0;0;0;1
73;0;0;0;0;0;0;0;0;0;0;0;0;0;0;0;0;0;0
74;0;0;0;0;0;0;0;0;0;0;0;0;0;0;0;0;0;0
75;0;0;0;0;0;0;0;0;0;0;0;0;0;0;0;0;0;0
76;0;0;0;0;0;0;0;0;0;0;0;0;0;0;0;0;0;0
77;0;0;0;0;0;0;0;0;0;0;0;0;0;0;0;0;0;0
78;0;0;0;0;0;0;0;0;0;0;0;0;0;0;0;0;0;0
79;0;0;0;0;0;0;0;0;0;0;0;0;0;0;0;0;0;0
80;0;0;0;0;0;0;0;0;0;0;0;0;0;0;0;0;0;0
81;0;0;0;0;0;0;0;0;0;0;0;0;0;0;0;0;0;0
82;0;0;0;0;0;0;0;0;0;0;0;0;0;0;0;0;0;0
83;0;0;0;0;0;0;0;0;0;0;0;0;0;0;0;0;0;0
84;0;0;0;0;0;0;0;0;0;0;0;0;0;0;0;0;0;0
85;0;0;0;0;0;0;0;0;0;0;0;0;0;0;0;0;0;0
86;0;0;0;0;0;0;0;0;0;0;0;0;0;0;0;0;0;0
87;0;0;0;0;0;0;0;0;0;0;0;0;0;0;0;0;0;0
88;0;0;0;0;0;0;0;0;0;0;0;0;0;0;0;0;0;0
89;0;0;0;0;0;0;0;0;0;0;0;0;0;0;0;0;0;0
90;0;0;0;0;0;0;0;0;0;0;0;0;0;0;0;0;0;0
91;0;0;0;0;0;0;0;0;0;0;0;0;0;0;0;0;0;0
92;0;0;0;0;0;0;0;0;0;0;0;0;0;0;0;0;0;0
93;0;0;0;0;0;0;0;0;0;0;0;0;0;0;0;0;0;0
94;0;0;0;0;0;0;0;0;0;0;0;0;0;0;0;0;0;0
95;0;0;0;0;0;0;0;0;0;0;0;0;0;0;0;0;0;0
96;0;0;0;0;0;0;0;0;0;0;0;0;0;0;0;0;0;0
97;0;0;0;0;0;0;0;0;0;0;0;0;0;0;0;0;0;0
98;0;0;0;0;0;0;0;0;0;0;0;0;0;0;0;0;0;0
99;0;0;0;0;0;0;0;0;0;0;0;0;0;0;0;0;0;0
100 e oltre;0;0;0;0;0;0;0;0;0;0;0;0;0;0;0;0;0;0
Totale;16;26;22;32;32;36;47;46;54;66;72;78;91;91;105;94;93;76
