"Popolazione per età, vista per singola area - Comune: 068007 - Caramanico Terme"

"Ricostruzione della popolazione intercensuaria - Popolazione al 1° gennaio per età"
"Tutte le cittadinanze - Comune: Caramanico Terme"
Età/Anno;2002;2003;2004;2005;2006;2007;2008;2009;2010;2011;2012;2013;2014;2015;2016;2017;2018;2019
Età;Totale
0;20;18;15;19;15;16;17;18;16;9;18;13;12;16;11;13;9;7
1;10;20;21;15;22;14;16;16;18;15;9;18;13;13;16;13;13;10
2;19;10;16;21;16;21;15;16;16;20;15;11;18;13;13;16;10;13
3;21;18;8;16;21;16;21;13;15;17;21;15;11;15;14;12;13;10
4;24;22;17;8;17;20;14;21;14;15;17;20;15;10;14;14;11;14
5;14;24;24;17;9;18;20;14;21;14;15;17;20;15;9;14;12;10
6;18;14;24;23;17;9;17;19;17;21;14;14;18;22;15;9;13;11
7;19;18;13;24;23;17;9;17;19;16;23;15;14;18;20;15;8;13
8;29;20;18;14;26;23;17;9;16;19;18;22;14;14;18;21;14;8
9;25;29;19;18;13;26;23;19;9;16;20;15;22;13;12;18;20;14
10;18;26;28;19;19;13;25;24;21;9;16;20;17;23;13;12;17;19
11;22;18;27;28;18;19;14;25;24;21;10;15;19;17;23;13;12;18
12;24;22;18;27;28;18;19;15;25;24;21;11;15;19;17;23;12;14
13;16;25;23;17;27;28;18;17;15;25;24;21;10;14;19;18;21;12
14;22;16;26;25;18;26;28;18;18;15;25;24;22;10;16;19;18;21
15;22;22;16;25;23;18;26;27;19;18;15;25;24;22;9;15;19;17
16;22;23;23;16;25;25;17;26;26;19;18;15;26;24;20;9;14;17
17;28;23;25;23;17;24;23;18;26;26;19;18;15;25;24;20;9;16
18;22;28;23;25;23;15;24;24;18;26;26;18;18;15;25;24;19;9
19;19;22;28;23;26;24;15;23;24;18;28;25;18;18;15;24;24;18
20;24;20;23;28;25;24;24;15;23;24;18;25;24;18;18;15;22;24
21;21;22;20;24;28;26;24;23;17;24;24;18;24;24;17;18;15;25
22;32;20;23;22;24;26;26;23;23;17;24;24;18;23;24;17;18;18
23;16;33;19;22;22;24;26;27;23;21;16;25;24;21;23;24;17;21
24;23;16;33;20;23;23;27;26;25;25;22;17;26;24;21;22;24;21
25;28;25;14;34;21;25;22;27;27;23;27;22;16;25;24;20;21;26
26;21;25;26;15;35;21;25;22;25;27;20;26;22;17;26;23;20;25
27;26;23;24;25;16;36;21;26;20;25;28;23;26;20;17;27;24;19
28;26;30;23;25;25;14;33;22;23;22;26;28;20;25;19;20;25;23
29;27;27;28;23;27;26;13;32;24;22;20;24;28;21;25;18;21;25
30;21;28;27;29;22;28;25;12;30;23;20;20;23;26;21;22;16;21
31;22;18;30;27;28;21;26;26;16;29;22;20;20;25;23;21;22;20
32;39;23;17;32;27;29;20;26;24;13;28;19;17;20;24;23;17;22
33;26;41;23;20;32;28;28;19;26;24;12;27;21;15;21;23;22;17
34;27;26;41;23;22;32;24;28;19;22;27;12;27;20;16;21;23;21
35;40;24;25;43;21;24;32;24;29;20;21;28;13;26;20;18;21;24
36;29;41;25;26;44;22;21;33;24;30;21;20;28;13;22;22;19;21
37;44;31;40;26;27;44;19;20;30;23;31;23;20;24;15;23;24;18
38;23;45;30;39;24;29;42;19;22;29;25;30;23;20;23;17;22;24
39;28;21;45;32;40;22;28;42;21;23;31;26;31;23;22;20;10;24
40;31;27;23;45;31;39;22;27;42;26;23;33;28;30;22;22;20;9
41;34;29;27;24;44;30;36;24;29;42;27;24;33;28;29;22;20;18
42;30;33;29;29;22;44;31;34;24;29;42;25;25;34;29;29;21;22
43;35;28;35;29;30;21;45;31;35;25;29;41;25;24;31;28;29;20
44;31;35;29;36;30;29;20;42;31;37;25;30;39;25;24;32;26;27
45;34;31;38;28;34;30;28;20;41;30;37;24;31;43;24;24;31;25
46;25;34;32;37;28;35;31;29;20;41;31;39;23;31;41;26;24;32
47;30;25;31;32;37;28;36;31;29;20;41;31;40;23;30;40;26;24
48;36;29;26;31;32;36;28;35;33;30;20;41;31;41;23;31;38;26
49;19;38;28;26;31;31;37;29;35;33;29;20;38;31;42;23;31;38
50;17;19;37;28;26;32;33;36;29;34;33;29;20;39;31;42;23;32
51;25;17;19;38;28;26;30;34;35;29;33;33;29;20;39;30;41;22
52;24;24;17;20;37;29;25;30;32;36;29;32;33;30;20;39;30;40
53;18;24;25;16;20;37;30;25;32;32;37;28;32;34;30;20;39;29
54;27;19;24;25;16;20;37;28;25;33;34;37;29;31;34;30;20;39
55;25;27;19;25;26;16;19;37;27;25;33;34;37;29;31;35;31;22
56;17;24;29;17;25;26;15;20;36;27;27;32;35;38;29;31;34;33
57;25;17;24;30;17;25;26;15;21;37;27;26;32;35;37;28;29;34
58;24;24;18;25;29;17;24;26;15;22;36;27;26;31;35;35;31;28
59;18;24;24;17;26;30;16;24;26;15;22;36;28;26;32;34;36;31
60;11;18;25;23;18;26;31;15;25;25;15;19;36;28;26;31;34;35
61;26;11;17;25;23;17;25;30;15;25;26;17;20;35;28;26;30;32
62;22;23;9;18;24;24;17;25;31;16;24;26;17;21;36;28;27;29
63;19;22;21;9;17;22;21;17;25;31;16;24;26;17;21;36;28;26
64;33;18;23;22;9;16;22;22;18;25;32;16;24;26;17;21;35;29
65;33;32;17;22;23;9;16;22;22;17;23;35;16;25;26;19;22;33
66;20;33;30;17;24;23;9;17;23;22;17;22;37;16;25;26;19;24
67;24;20;33;30;17;26;23;10;15;22;21;17;22;36;16;27;24;21
68;29;24;21;31;30;18;25;20;10;15;21;22;16;22;33;16;27;21
69;14;30;24;20;30;30;18;25;20;10;15;21;21;17;22;34;17;25
70;21;15;30;24;19;27;27;18;25;20;10;15;22;21;16;22;34;17
71;28;19;16;31;21;19;27;27;17;25;21;10;14;22;20;16;22;32
72;17;28;20;16;32;21;18;26;26;16;25;22;10;14;21;22;16;23
73;24;17;28;19;16;33;20;17;25;25;16;24;22;9;14;21;21;16
74;27;24;16;29;18;16;29;20;17;25;23;16;25;21;9;14;20;21
75;32;25;24;15;29;18;16;29;20;16;26;23;16;24;21;10;16;20
76;20;31;25;21;14;28;18;18;28;19;16;25;23;15;21;19;10;16
77;29;16;28;25;22;13;28;20;18;27;19;15;26;23;14;21;18;9
78;25;27;13;26;23;22;10;25;21;18;24;18;15;25;24;14;20;17
79;18;24;24;14;25;24;22;12;22;19;16;23;16;15;25;25;14;18
80;21;18;25;25;13;25;22;22;10;22;17;16;20;16;10;25;25;14
81;19;19;16;21;22;11;23;18;19;10;22;16;17;19;17;10;23;25
82;16;20;18;16;19;21;13;23;18;18;9;23;15;17;17;17;9;24
83;5;15;20;17;15;19;19;8;20;15;17;8;20;13;17;16;17;8
84;7;5;12;18;16;12;14;18;8;20;9;16;7;19;10;16;14;16
85;19;8;4;10;15;16;8;14;16;9;19;8;15;6;18;10;15;12
86;12;14;8;4;9;14;16;7;16;16;9;19;7;15;6;14;7;14
87;13;11;14;8;4;8;10;17;8;15;15;8;17;8;15;6;11;8
88;11;13;13;11;8;4;7;8;16;8;12;10;9;14;7;13;4;8
89;11;5;11;12;6;5;4;6;7;12;6;11;10;9;13;6;11;4
90;7;10;3;6;8;6;4;3;6;8;11;5;10;9;6;12;5;8
91;5;7;9;3;6;8;5;4;3;4;6;8;4;9;5;6;9;4
92;4;4;5;8;4;5;6;5;3;2;3;3;6;3;8;4;5;9
93;5;3;2;5;6;1;4;6;4;3;2;3;2;5;2;8;3;4
94;2;4;2;1;5;4;1;4;5;4;1;2;1;0;7;2;7;2
95;2;2;2;1;0;2;3;1;3;5;4;1;2;1;0;7;2;7
96;1;2;0;2;0;0;1;3;2;3;3;4;1;2;1;0;6;2
97;1;1;1;1;2;0;0;1;2;2;2;2;1;0;2;1;0;4
98;0;0;0;0;1;2;0;0;0;2;2;2;2;1;0;2;0;0
99;1;0;0;0;0;1;2;0;0;0;2;2;2;1;1;0;2;0
100 e oltre;1;2;1;1;0;0;0;2;0;0;0;1;3;5;4;3;3;3
Totale;2117;2105;2092;2103;2098;2091;2037;2033;2034;2028;2027;2009;2001;1993;1958;1963;1903;1901
Età/Anno;2002;2003;2004;2005;2006;2007;2008;2009;2010;2011;2012;2013;2014;2015;2016;2017;2018;2019
Età;Maschi
0;12;7;7;8;9;8;8;13;7;1;6;6;6;9;3;7;2;4
1;6;12;7;7;11;8;8;7;14;7;1;6;6;6;9;3;7;2
2;7;6;9;7;7;11;8;7;6;16;7;3;6;6;7;9;2;7
3;12;7;4;8;7;7;11;7;7;7;15;7;3;6;7;7;8;2
4;15;12;7;4;8;6;5;11;8;7;8;15;7;2;5;7;7;8
5;5;15;14;7;5;9;6;5;11;8;7;8;14;7;2;5;7;7
6;8;5;16;14;7;5;9;6;6;11;8;6;8;14;7;2;4;6
7;11;7;4;16;14;7;5;9;6;6;12;8;6;8;14;7;2;4
8;20;12;8;4;17;14;7;5;8;6;7;12;6;6;9;14;7;2
9;19;20;12;8;3;17;14;9;5;8;7;5;12;6;6;9;14;7
10;8;19;21;12;9;3;15;14;11;5;8;7;6;12;6;6;8;13
11;14;7;20;21;12;9;3;15;14;11;5;7;7;6;12;6;6;9
12;9;14;7;20;21;12;9;4;15;14;11;5;7;7;6;12;7;6
13;9;10;15;7;20;22;12;8;4;15;14;12;5;6;7;7;10;7
14;10;9;10;16;8;20;22;12;8;4;15;14;13;5;8;7;8;10
15;14;10;9;9;14;8;20;22;12;8;4;16;13;12;4;8;7;7
16;14;14;11;9;9;14;8;20;21;12;8;4;16;13;10;4;7;7
17;14;15;16;11;9;8;13;7;20;21;12;8;4;16;13;10;4;8
18;14;14;15;16;11;9;8;14;7;20;21;11;8;4;16;13;9;4
19;7;14;14;15;16;11;9;8;14;7;21;20;11;8;4;16;13;9
20;11;7;15;14;17;15;11;8;8;14;7;20;19;11;8;4;15;13
21;10;10;7;15;14;18;15;11;8;9;14;7;21;19;10;8;4;17
22;16;9;10;8;15;12;18;15;11;8;9;13;7;20;19;10;8;8
23;7;17;10;10;8;15;12;18;15;9;8;9;13;8;20;19;10;9
24;8;8;18;11;10;8;16;12;16;16;10;9;10;13;8;18;19;14
25;14;11;8;16;12;12;8;16;12;15;17;10;10;9;13;7;17;20
26;11;12;11;9;17;12;12;9;16;12;15;17;10;10;9;12;7;20
27;15;12;10;11;8;16;12;14;9;16;13;17;17;8;10;9;13;8
28;11;17;12;11;11;6;15;12;13;10;17;13;15;15;8;10;9;13
29;14;11;15;11;12;11;5;15;14;12;9;16;14;16;15;7;10;9
30;13;15;12;15;12;13;11;3;13;13;10;9;16;14;17;13;7;10
31;11;10;16;12;14;12;12;13;4;13;11;9;9;18;12;17;13;11
32;21;12;12;17;13;14;11;11;13;3;12;10;7;9;17;12;13;13
33;15;22;13;13;17;13;15;11;12;12;3;12;10;6;10;15;12;12
34;11;15;22;13;13;17;9;15;11;10;11;3;13;10;7;10;15;12
35;24;12;15;23;12;13;17;9;15;11;10;11;4;13;10;8;10;16
36;16;24;12;14;23;12;9;18;10;16;12;10;11;4;12;11;9;10
37;22;17;23;12;14;23;10;9;16;9;16;12;10;11;5;13;12;9
38;14;22;17;23;11;15;22;10;10;16;11;15;12;10;11;7;12;12
39;11;13;22;19;24;10;15;22;10;9;17;13;15;12;10;9;3;12
40;16;11;15;22;18;25;10;15;22;13;9;19;13;14;11;10;9;3
41;15;15;11;15;22;18;24;11;17;22;13;9;19;13;14;11;10;7
42;12;15;15;11;14;22;18;22;10;17;22;13;10;20;14;14;10;11
43;19;12;16;15;11;13;23;17;23;11;18;21;13;9;17;13;14;9
44;13;19;13;16;15;11;12;21;17;24;11;18;21;14;9;18;11;14
45;20;14;20;13;15;15;11;12;20;16;24;10;18;21;14;9;17;11
46;17;20;15;19;13;15;16;11;12;20;16;25;9;18;19;14;9;18
47;16;17;18;16;19;13;16;17;11;12;20;15;26;9;17;19;14;10
48;18;15;18;18;16;17;13;15;17;12;12;20;15;27;9;18;20;14
49;10;19;14;18;18;16;18;13;16;17;12;13;18;15;28;10;18;20
50;10;10;18;14;18;19;16;17;13;16;17;12;13;18;15;28;10;18
51;11;10;10;18;14;18;17;16;17;13;15;17;12;13;18;15;27;9
52;11;11;11;10;17;14;17;17;15;18;13;14;17;12;13;18;15;25
53;11;11;11;10;10;18;15;17;18;15;19;13;14;18;12;13;18;15
54;15;12;11;11;10;10;18;13;17;19;17;19;13;13;18;12;13;18
55;10;15;10;11;12;10;10;18;13;17;19;17;19;13;13;18;13;14
56;9;9;17;10;11;12;9;10;17;13;19;18;17;19;13;13;17;15
57;11;9;9;17;10;11;12;9;11;17;13;18;18;17;18;13;11;17
58;13;11;9;10;16;10;10;12;9;11;17;13;18;18;17;17;13;11
59;10;13;12;9;11;17;9;10;12;9;11;17;13;18;19;16;18;13
60;7;10;13;12;9;11;17;9;11;12;9;10;17;13;18;18;16;18
61;14;7;9;13;12;8;11;16;9;11;12;11;10;17;13;18;17;16
62;11;11;7;10;12;13;8;11;17;10;11;12;11;10;18;13;20;16
63;9;11;10;7;9;10;12;8;11;17;10;11;12;11;10;18;13;19
64;18;9;12;11;7;8;10;12;9;11;18;10;11;12;11;10;17;13
65;12;17;9;11;12;7;8;10;12;8;9;19;10;10;12;10;10;15
66;9;12;16;9;12;12;7;9;10;12;8;9;21;10;10;12;10;12
67;13;9;12;16;9;13;12;7;7;10;12;8;8;20;10;12;11;10
68;18;13;9;11;16;9;13;9;7;7;9;13;7;8;19;9;12;10
69;5;18;13;9;11;16;9;13;9;7;7;9;13;8;8;20;9;11
70;6;5;18;13;8;8;14;9;13;9;7;7;10;13;8;8;20;9
71;12;4;5;18;10;8;8;14;9;13;10;7;7;10;12;8;8;18
72;6;12;4;5;19;10;8;7;13;8;13;10;7;7;10;13;8;9
73;11;6;12;3;5;20;10;7;7;13;8;12;10;7;7;10;12;7
74;13;11;5;13;4;5;17;11;7;7;13;8;13;10;7;7;9;11
75;12;12;12;4;13;5;4;16;11;7;7;12;8;12;10;8;9;9
76;10;12;12;9;4;13;5;6;15;10;7;6;12;8;9;8;8;9
77;14;8;10;11;9;4;13;6;6;14;10;7;7;12;7;9;7;7
78;10;13;6;9;9;9;2;10;7;6;13;9;8;7;12;7;8;7
79;7;9;11;7;8;10;9;2;10;6;5;11;8;8;7;13;7;7
80;6;7;9;9;6;8;10;9;0;10;5;5;9;8;5;7;13;7
81;7;6;5;8;9;5;7;7;9;0;10;4;5;8;8;5;7;13
82;8;7;6;5;7;9;6;7;7;8;0;9;3;5;6;8;4;7
83;1;7;6;5;4;6;7;4;5;6;7;0;8;2;5;5;8;4
84;2;1;7;6;5;2;4;8;4;5;1;6;0;8;1;5;5;7
85;9;2;1;6;5;5;2;4;7;4;5;1;6;0;8;1;5;4
86;5;5;2;1;5;4;6;1;5;7;4;5;1;6;0;7;1;6
87;7;5;5;2;1;5;1;7;2;5;7;3;5;2;6;0;6;1
88;6;7;5;4;2;1;5;1;7;2;3;4;3;3;2;6;0;3
89;4;3;6;5;1;1;1;4;1;5;1;2;4;3;3;2;5;0
90;2;4;1;3;2;1;1;0;4;1;4;1;2;3;2;3;1;3
91;3;2;3;1;3;2;1;1;0;3;0;2;1;1;2;2;1;1
92;1;2;2;3;1;2;2;1;1;0;2;0;1;0;0;1;1;1
93;0;0;0;2;1;0;1;2;1;1;0;2;0;1;0;0;1;1
94;0;0;0;0;2;0;0;1;2;1;0;0;1;0;1;0;0;1
95;0;0;0;0;0;0;0;0;0;2;1;0;0;1;0;1;0;0
96;0;0;0;0;0;0;0;0;0;0;1;1;0;0;1;0;1;0
97;1;0;0;0;0;0;0;0;0;0;0;1;0;0;0;1;0;0
98;0;0;0;0;0;0;0;0;0;0;0;0;1;0;0;0;0;0
99;0;0;0;0;0;0;0;0;0;0;0;0;0;1;0;0;0;0
100 e oltre;0;0;0;0;0;0;0;0;0;0;0;0;0;0;1;1;1;0
Totale;1049;1040;1042;1040;1036;1029;1000;996;1002;997;995;983;983;979;963;963;935;941
Età/Anno;2002;2003;2004;2005;2006;2007;2008;2009;2010;2011;2012;2013;2014;2015;2016;2017;2018;2019
Età;Femmine
0;8;11;8;11;6;8;9;5;9;8;12;7;6;7;8;6;7;3
1;4;8;14;8;11;6;8;9;4;8;8;12;7;7;7;10;6;8
2;12;4;7;14;9;10;7;9;10;4;8;8;12;7;6;7;8;6
3;9;11;4;8;14;9;10;6;8;10;6;8;8;9;7;5;5;8
4;9;10;10;4;9;14;9;10;6;8;9;5;8;8;9;7;4;6
5;9;9;10;10;4;9;14;9;10;6;8;9;6;8;7;9;5;3
6;10;9;8;9;10;4;8;13;11;10;6;8;10;8;8;7;9;5
7;8;11;9;8;9;10;4;8;13;10;11;7;8;10;6;8;6;9
8;9;8;10;10;9;9;10;4;8;13;11;10;8;8;9;7;7;6
9;6;9;7;10;10;9;9;10;4;8;13;10;10;7;6;9;6;7
10;10;7;7;7;10;10;10;10;10;4;8;13;11;11;7;6;9;6
11;8;11;7;7;6;10;11;10;10;10;5;8;12;11;11;7;6;9
12;15;8;11;7;7;6;10;11;10;10;10;6;8;12;11;11;5;8
13;7;15;8;10;7;6;6;9;11;10;10;9;5;8;12;11;11;5
14;12;7;16;9;10;6;6;6;10;11;10;10;9;5;8;12;10;11
15;8;12;7;16;9;10;6;5;7;10;11;9;11;10;5;7;12;10
16;8;9;12;7;16;11;9;6;5;7;10;11;10;11;10;5;7;10
17;14;8;9;12;8;16;10;11;6;5;7;10;11;9;11;10;5;8
18;8;14;8;9;12;6;16;10;11;6;5;7;10;11;9;11;10;5
19;12;8;14;8;10;13;6;15;10;11;7;5;7;10;11;8;11;9
20;13;13;8;14;8;9;13;7;15;10;11;5;5;7;10;11;7;11
21;11;12;13;9;14;8;9;12;9;15;10;11;3;5;7;10;11;8
22;16;11;13;14;9;14;8;8;12;9;15;11;11;3;5;7;10;10
23;9;16;9;12;14;9;14;9;8;12;8;16;11;13;3;5;7;12
24;15;8;15;9;13;15;11;14;9;9;12;8;16;11;13;4;5;7
25;14;14;6;18;9;13;14;11;15;8;10;12;6;16;11;13;4;6
26;10;13;15;6;18;9;13;13;9;15;5;9;12;7;17;11;13;5
27;11;11;14;14;8;20;9;12;11;9;15;6;9;12;7;18;11;11
28;15;13;11;14;14;8;18;10;10;12;9;15;5;10;11;10;16;10
29;13;16;13;12;15;15;8;17;10;10;11;8;14;5;10;11;11;16
30;8;13;15;14;10;15;14;9;17;10;10;11;7;12;4;9;9;11
31;11;8;14;15;14;9;14;13;12;16;11;11;11;7;11;4;9;9
32;18;11;5;15;14;15;9;15;11;10;16;9;10;11;7;11;4;9
33;11;19;10;7;15;15;13;8;14;12;9;15;11;9;11;8;10;5
34;16;11;19;10;9;15;15;13;8;12;16;9;14;10;9;11;8;9
35;16;12;10;20;9;11;15;15;14;9;11;17;9;13;10;10;11;8
36;13;17;13;12;21;10;12;15;14;14;9;10;17;9;10;11;10;11
37;22;14;17;14;13;21;9;11;14;14;15;11;10;13;10;10;12;9
38;9;23;13;16;13;14;20;9;12;13;14;15;11;10;12;10;10;12
39;17;8;23;13;16;12;13;20;11;14;14;13;16;11;12;11;7;12
40;15;16;8;23;13;14;12;12;20;13;14;14;15;16;11;12;11;6
41;19;14;16;9;22;12;12;13;12;20;14;15;14;15;15;11;10;11
42;18;18;14;18;8;22;13;12;14;12;20;12;15;14;15;15;11;11
43;16;16;19;14;19;8;22;14;12;14;11;20;12;15;14;15;15;11
44;18;16;16;20;15;18;8;21;14;13;14;12;18;11;15;14;15;13
45;14;17;18;15;19;15;17;8;21;14;13;14;13;22;10;15;14;14
46;8;14;17;18;15;20;15;18;8;21;15;14;14;13;22;12;15;14
47;14;8;13;16;18;15;20;14;18;8;21;16;14;14;13;21;12;14
48;18;14;8;13;16;19;15;20;16;18;8;21;16;14;14;13;18;12
49;9;19;14;8;13;15;19;16;19;16;17;7;20;16;14;13;13;18
50;7;9;19;14;8;13;17;19;16;18;16;17;7;21;16;14;13;14
51;14;7;9;20;14;8;13;18;18;16;18;16;17;7;21;15;14;13
52;13;13;6;10;20;15;8;13;17;18;16;18;16;18;7;21;15;15
53;7;13;14;6;10;19;15;8;14;17;18;15;18;16;18;7;21;14
54;12;7;13;14;6;10;19;15;8;14;17;18;16;18;16;18;7;21
55;15;12;9;14;14;6;9;19;14;8;14;17;18;16;18;17;18;8
56;8;15;12;7;14;14;6;10;19;14;8;14;18;19;16;18;17;18
57;14;8;15;13;7;14;14;6;10;20;14;8;14;18;19;15;18;17
58;11;13;9;15;13;7;14;14;6;11;19;14;8;13;18;18;18;17
59;8;11;12;8;15;13;7;14;14;6;11;19;15;8;13;18;18;18
60;4;8;12;11;9;15;14;6;14;13;6;9;19;15;8;13;18;17
61;12;4;8;12;11;9;14;14;6;14;14;6;10;18;15;8;13;16
62;11;12;2;8;12;11;9;14;14;6;13;14;6;11;18;15;7;13
63;10;11;11;2;8;12;9;9;14;14;6;13;14;6;11;18;15;7
64;15;9;11;11;2;8;12;10;9;14;14;6;13;14;6;11;18;16
65;21;15;8;11;11;2;8;12;10;9;14;16;6;15;14;9;12;18
66;11;21;14;8;12;11;2;8;13;10;9;13;16;6;15;14;9;12
67;11;11;21;14;8;13;11;3;8;12;9;9;14;16;6;15;13;11
68;11;11;12;20;14;9;12;11;3;8;12;9;9;14;14;7;15;11
69;9;12;11;11;19;14;9;12;11;3;8;12;8;9;14;14;8;14
70;15;10;12;11;11;19;13;9;12;11;3;8;12;8;8;14;14;8
71;16;15;11;13;11;11;19;13;8;12;11;3;7;12;8;8;14;14
72;11;16;16;11;13;11;10;19;13;8;12;12;3;7;11;9;8;14
73;13;11;16;16;11;13;10;10;18;12;8;12;12;2;7;11;9;9
74;14;13;11;16;14;11;12;9;10;18;10;8;12;11;2;7;11;10
75;20;13;12;11;16;13;12;13;9;9;19;11;8;12;11;2;7;11
76;10;19;13;12;10;15;13;12;13;9;9;19;11;7;12;11;2;7
77;15;8;18;14;13;9;15;14;12;13;9;8;19;11;7;12;11;2
78;15;14;7;17;14;13;8;15;14;12;11;9;7;18;12;7;12;10
79;11;15;13;7;17;14;13;10;12;13;11;12;8;7;18;12;7;11
80;15;11;16;16;7;17;12;13;10;12;12;11;11;8;5;18;12;7
81;12;13;11;13;13;6;16;11;10;10;12;12;12;11;9;5;16;12
82;8;13;12;11;12;12;7;16;11;10;9;14;12;12;11;9;5;17
83;4;8;14;12;11;13;12;4;15;9;10;8;12;11;12;11;9;4
84;5;4;5;12;11;10;10;10;4;15;8;10;7;11;9;11;9;9
85;10;6;3;4;10;11;6;10;9;5;14;7;9;6;10;9;10;8
86;7;9;6;3;4;10;10;6;11;9;5;14;6;9;6;7;6;8
87;6;6;9;6;3;3;9;10;6;10;8;5;12;6;9;6;5;7
88;5;6;8;7;6;3;2;7;9;6;9;6;6;11;5;7;4;5
89;7;2;5;7;5;4;3;2;6;7;5;9;6;6;10;4;6;4
90;5;6;2;3;6;5;3;3;2;7;7;4;8;6;4;9;4;5
91;2;5;6;2;3;6;4;3;3;1;6;6;3;8;3;4;8;3
92;3;2;3;5;3;3;4;4;2;2;1;3;5;3;8;3;4;8
93;5;3;2;3;5;1;3;4;3;2;2;1;2;4;2;8;2;3
94;2;4;2;1;3;4;1;3;3;3;1;2;0;0;6;2;7;1
95;2;2;2;1;0;2;3;1;3;3;3;1;2;0;0;6;2;7
96;1;2;0;2;0;0;1;3;2;3;2;3;1;2;0;0;5;2
97;0;1;1;1;2;0;0;1;2;2;2;1;1;0;2;0;0;4
98;0;0;0;0;1;2;0;0;0;2;2;2;1;1;0;2;0;0
99;1;0;0;0;0;1;2;0;0;0;2;2;2;0;1;0;2;0
100 e oltre;1;2;1;1;0;0;0;2;0;0;0;1;3;5;3;2;2;3
Totale;1068;1065;1050;1063;1062;1062;1037;1037;1032;1031;1032;1026;1018;1014;995;1000;968;960

"Ricostruzione della popolazione intercensuaria - Popolazione al 1° gennaio per età"
"Cittadinanza italiana - Comune: Caramanico Terme"
Età/Anno;2002;2003;2004;2005;2006;2007;2008;2009;2010;2011;2012;2013;2014;2015;2016;2017;2018;2019
Età;Totale
0;19;17;15;19;15;15;15;16;16;8;17;13;9;16;10;12;7;7
1;9;20;20;15;22;14;15;14;16;15;8;17;13;8;16;12;12;9
2;17;9;16;20;16;21;15;14;14;18;15;9;17;13;8;16;10;12
3;21;16;8;16;20;16;21;12;14;15;19;15;9;14;14;8;13;10
4;24;22;15;8;17;19;14;21;13;14;16;18;15;8;14;14;9;14
5;13;24;24;15;9;18;19;13;21;13;14;16;16;15;7;14;12;8
6;18;13;24;23;15;9;17;18;15;21;13;13;17;18;15;7;13;11
7;17;17;13;24;23;15;9;17;18;15;23;14;13;17;16;15;6;13
8;26;17;17;14;26;23;15;9;16;18;17;22;12;13;18;19;14;7
9;25;26;17;17;13;26;23;16;9;16;18;14;22;12;11;18;20;14
10;17;25;26;17;17;13;25;24;17;9;16;18;16;23;12;12;17;19
11;20;17;26;26;17;17;14;25;24;17;9;15;18;16;23;13;12;18
12;24;20;17;26;26;17;17;15;25;24;17;10;14;18;16;23;12;14
13;15;25;21;16;26;25;17;17;15;25;24;16;10;14;18;18;21;12
14;22;15;26;23;16;25;25;17;18;15;25;24;16;10;16;19;18;21
15;22;22;15;25;23;16;25;25;17;18;15;24;24;15;9;15;19;17
16;22;23;22;15;25;23;15;25;24;17;18;15;24;24;14;9;14;17
17;27;22;23;22;16;24;21;17;25;24;17;18;15;24;24;15;9;16
18;22;27;22;23;22;14;24;22;17;25;24;17;18;15;24;24;16;9
19;19;22;27;22;24;22;14;23;22;17;25;25;17;18;15;23;24;16
20;24;20;22;27;24;23;22;14;23;22;17;24;24;17;18;15;22;24
21;21;22;20;23;27;23;23;20;13;24;22;17;23;24;17;18;15;23
22;32;20;22;20;23;25;23;22;21;14;24;22;17;22;24;17;18;14
23;13;33;18;21;20;23;25;24;22;19;13;25;23;20;22;24;16;19
24;22;14;33;19;22;20;25;25;23;24;20;14;26;23;20;21;24;18
25;27;22;13;32;19;22;20;25;26;21;26;20;12;25;23;19;21;24
26;21;24;22;14;33;19;22;19;24;26;18;24;20;13;26;22;19;22
27;25;23;23;22;15;33;19;21;17;24;26;19;24;18;13;27;23;17
28;21;27;23;23;22;14;30;20;19;19;25;26;16;22;17;16;25;22
29;26;21;28;23;25;23;11;29;21;18;18;24;25;17;22;17;18;25
30;20;25;22;29;22;25;23;10;27;21;17;18;23;24;16;19;15;18
31;22;17;29;22;28;20;23;24;12;26;20;16;18;25;21;16;19;17
32;39;23;16;30;24;28;19;24;22;11;24;17;14;18;24;21;14;20
33;25;40;23;18;30;24;28;19;24;23;10;23;19;11;19;23;21;14
34;27;25;40;23;19;31;20;28;19;20;25;10;23;18;11;19;23;20
35;38;24;24;42;21;20;30;21;29;19;20;24;12;23;19;12;19;24
36;28;39;25;25;43;21;19;31;22;30;20;20;23;12;19;20;13;20
37;44;29;38;26;25;43;18;19;29;21;31;22;20;20;13;20;22;14
38;23;45;28;37;24;26;42;18;21;28;23;30;22;20;19;16;20;23
39;28;21;45;30;38;22;25;42;20;22;29;23;31;22;21;19;10;21
40;31;27;23;45;29;37;22;25;42;25;22;31;24;30;21;21;19;9
41;33;29;27;24;44;28;34;24;27;42;26;23;31;24;29;21;19;17
42;30;32;29;29;22;44;28;34;23;27;42;24;24;32;25;29;20;21
43;32;28;34;29;30;21;45;28;34;24;28;40;24;23;30;25;29;19
44;30;32;29;35;30;29;20;42;28;36;23;29;38;24;23;31;24;27
45;33;29;32;28;33;30;28;20;41;27;36;23;30;41;23;23;30;23
46;24;33;30;31;28;33;31;29;20;41;28;38;22;30;40;25;23;31
47;30;24;30;30;33;28;34;31;29;20;41;28;38;22;30;39;25;23
48;35;29;25;30;30;31;28;33;32;30;20;41;28;39;22;31;37;25
49;19;37;28;25;30;29;32;29;32;33;29;20;38;28;40;21;31;37
50;16;19;36;28;25;31;29;32;29;31;33;29;20;39;28;40;21;32
51;25;16;19;37;28;25;29;30;32;29;31;33;29;20;39;28;40;21
52;24;24;17;20;37;29;24;29;30;33;29;30;33;30;20;39;28;38
53;18;24;25;16;20;36;30;24;31;30;33;28;30;34;30;20;39;27
54;27;18;24;25;16;20;35;28;24;32;31;33;28;29;34;30;20;39
55;25;27;17;25;26;16;19;35;27;24;32;31;32;28;29;35;31;22
56;17;24;29;17;25;26;15;20;35;27;26;32;31;33;28;29;34;33
57;25;17;24;30;17;25;26;15;21;36;27;25;32;31;33;28;28;34
58;24;24;17;25;29;17;24;26;15;22;35;27;25;31;31;32;30;27
59;18;24;24;17;26;30;16;24;26;15;22;35;28;25;32;30;32;29
60;11;18;25;23;18;26;31;15;24;25;15;19;35;28;25;31;30;33
61;26;11;17;25;23;17;25;30;15;24;26;17;19;35;28;25;30;30
62;22;23;9;18;24;23;17;25;31;16;23;26;17;19;36;28;26;29
63;19;22;21;9;17;22;21;17;25;31;16;23;26;17;19;36;28;26
64;33;18;23;22;9;16;22;22;18;25;32;16;23;26;17;19;35;29
65;33;32;17;22;23;9;16;22;22;17;23;35;16;24;26;19;20;33
66;20;33;30;17;24;23;9;17;22;22;17;22;37;16;24;26;19;21
67;24;20;33;30;17;26;23;10;15;21;21;17;22;36;16;26;24;19
68;29;24;21;31;30;18;25;20;10;15;20;22;16;22;33;16;26;21
69;14;30;24;20;30;30;18;25;20;10;15;20;21;17;22;34;17;24
70;20;15;30;24;19;27;27;18;25;20;10;15;21;21;16;22;34;16
71;28;18;16;31;21;19;27;27;17;25;21;10;14;21;20;16;22;32
72;17;28;20;16;32;21;18;26;26;16;25;22;10;14;21;22;16;23
73;24;17;28;18;16;33;20;17;25;25;16;24;22;9;14;21;21;16
74;27;24;16;29;17;16;29;20;17;25;23;16;25;21;9;14;20;21
75;32;25;24;15;29;17;16;29;20;16;26;23;16;24;21;10;16;20
76;20;31;25;21;14;28;17;18;28;19;16;25;23;15;21;19;10;16
77;29;16;28;25;22;13;28;19;18;27;19;15;26;23;14;21;18;9
78;25;27;13;26;23;22;10;25;20;18;24;18;15;25;24;14;20;17
79;18;24;24;14;25;24;22;12;22;18;16;23;16;15;25;25;14;18
80;21;18;25;24;13;25;22;22;10;22;16;16;20;16;10;25;25;14
81;19;19;16;21;21;11;23;18;19;10;22;15;17;19;17;10;23;25
82;16;20;18;16;19;21;13;23;18;18;9;23;14;17;17;17;9;24
83;5;15;20;17;15;19;19;8;20;15;17;8;20;12;17;16;17;8
84;7;5;12;18;16;12;14;18;8;20;9;16;7;19;9;16;14;16
85;19;8;4;10;15;16;8;14;16;9;19;8;15;6;18;9;15;12
86;12;14;8;4;9;14;16;7;16;16;9;19;7;15;6;14;6;14
87;13;11;14;8;4;8;10;17;8;15;15;8;17;8;15;6;11;7
88;11;13;13;11;8;4;7;8;15;8;12;10;9;14;7;13;4;8
89;11;5;11;12;6;5;4;6;7;12;6;11;10;9;13;6;11;4
90;7;10;3;6;8;6;4;3;6;8;11;5;10;9;6;12;5;8
91;5;7;9;3;6;8;5;4;3;4;6;8;4;9;5;6;9;4
92;4;4;5;8;4;5;6;5;3;2;3;3;6;3;8;4;5;9
93;5;3;2;5;6;1;4;6;4;3;2;3;2;5;2;8;3;4
94;2;4;2;1;5;4;1;4;5;4;1;2;1;0;7;2;7;2
95;2;2;2;1;0;2;3;1;3;5;4;1;2;1;0;7;2;7
96;1;2;0;2;0;0;1;3;2;3;3;4;1;2;1;0;6;2
97;1;1;1;1;2;0;0;1;2;2;2;2;1;0;2;1;0;4
98;0;0;0;0;1;2;0;0;0;2;2;2;2;1;0;2;0;0
99;1;0;0;0;0;1;2;0;0;0;2;2;2;1;1;0;2;0
100 e oltre;1;2;1;1;0;0;0;2;0;0;0;1;3;5;4;3;3;3
Totale;2075;2049;2037;2043;2041;2016;1959;1957;1953;1953;1946;1926;1905;1897;1867;1885;1838;1825
Età/Anno;2002;2003;2004;2005;2006;2007;2008;2009;2010;2011;2012;2013;2014;2015;2016;2017;2018;2019
Età;Maschi
0;11;7;7;8;9;8;8;12;7;0;5;6;6;9;2;6;0;4
1;5;12;7;7;11;8;8;7;13;7;0;5;6;6;9;2;6;1
2;6;5;9;7;7;11;8;7;6;15;7;1;5;6;6;9;2;6
3;12;6;4;8;7;7;11;6;7;7;14;7;1;5;7;6;8;2
4;15;12;6;4;8;6;5;11;7;7;8;14;7;0;5;7;6;8
5;4;15;14;6;5;9;6;5;11;7;7;8;13;7;0;5;7;6
6;8;4;16;14;6;5;9;6;6;11;7;6;8;13;7;0;4;6
7;11;7;4;16;14;6;5;9;6;6;12;7;6;8;13;7;0;4
8;19;11;8;4;17;14;6;5;8;6;7;12;5;6;9;14;7;1
9;19;19;11;8;3;17;14;7;5;8;6;5;12;5;6;9;14;7
10;8;19;20;11;8;3;15;14;8;5;8;6;6;12;5;6;8;13
11;12;7;20;20;11;8;3;15;14;8;5;7;7;6;12;6;6;9
12;9;12;7;20;20;11;8;4;15;14;8;5;6;7;6;12;7;6
13;9;10;13;7;20;20;11;8;4;15;14;8;5;6;7;7;10;7
14;10;9;10;14;7;20;20;11;8;4;15;14;8;5;8;7;8;10
15;14;10;9;9;14;7;20;20;11;8;4;15;13;7;4;8;7;7
16;14;14;10;9;9;14;7;20;19;11;8;4;15;13;6;4;7;7
17;14;14;14;10;9;8;13;7;20;19;11;8;4;15;13;7;4;8
18;14;14;14;14;10;9;8;14;7;20;19;10;8;4;15;13;7;4
19;7;14;14;14;14;10;9;8;14;7;20;20;10;8;4;15;13;7
20;11;7;14;14;16;14;10;8;8;14;7;20;19;10;8;4;15;13
21;10;10;7;14;14;16;14;10;8;9;14;7;20;19;10;8;4;15
22;16;9;10;7;14;12;16;14;10;8;9;13;7;19;19;10;8;4
23;6;17;9;10;7;14;12;16;14;8;8;9;13;8;19;19;10;8
24;7;7;18;10;10;7;15;12;15;15;9;9;10;13;8;17;19;12
25;14;8;7;16;10;10;7;15;12;14;16;9;9;9;13;7;17;19
26;11;12;8;8;17;10;10;7;15;12;14;15;9;9;9;12;7;17
27;14;12;10;9;7;16;10;10;7;15;13;14;15;7;9;9;13;7
28;11;15;12;11;9;6;15;10;9;8;16;13;12;13;7;9;9;13
29;13;11;15;11;12;9;5;15;11;8;7;16;14;13;13;6;9;9
30;13;13;12;15;12;12;9;3;13;11;7;7;16;14;13;11;6;9
31;11;10;16;12;14;12;11;11;3;13;9;6;7;18;12;13;11;8
32;21;12;11;17;13;14;11;11;11;3;12;8;4;7;17;12;10;12
33;14;22;13;11;17;13;15;11;12;11;3;11;9;2;8;15;12;10
34;11;14;22;13;11;17;9;15;11;10;10;3;12;9;2;8;15;12
35;22;12;14;23;12;11;16;9;15;11;10;10;4;12;9;3;8;16
36;15;22;12;13;23;12;9;17;10;16;12;10;10;4;11;9;4;9
37;22;16;21;12;13;23;10;9;16;9;16;12;10;10;4;12;10;6
38;14;22;16;21;11;14;22;10;10;16;11;15;12;10;10;6;11;11
39;11;13;22;18;22;10;14;22;10;9;16;12;15;12;10;9;3;11
40;16;11;15;22;17;23;10;14;22;13;9;18;12;14;11;10;9;3
41;14;15;11;15;22;17;22;11;16;22;13;9;18;12;14;11;10;7
42;12;14;15;11;14;22;17;22;10;16;22;13;10;19;13;14;10;11
43;17;12;15;15;11;13;23;16;22;11;17;21;13;9;17;12;14;9
44;13;17;13;15;15;11;12;21;16;24;10;17;21;14;9;18;11;14
45;19;13;17;13;14;15;11;12;20;15;24;10;17;21;14;9;17;11
46;17;19;14;16;13;14;16;11;12;20;15;25;9;17;19;14;9;18
47;16;17;17;15;17;13;15;17;11;12;20;14;25;9;17;19;14;10
48;17;15;18;17;15;15;13;14;17;12;12;20;14;26;9;18;20;14
49;10;18;14;18;17;15;16;13;14;17;12;13;18;14;27;10;18;20
50;10;10;17;14;18;18;15;16;13;14;17;12;13;18;14;27;10;18
51;11;10;10;17;14;18;16;15;16;13;14;17;12;13;18;14;27;9
52;11;11;11;10;17;14;17;16;14;17;13;13;17;12;13;18;14;25
53;11;11;11;10;10;17;15;17;17;14;17;13;13;18;12;13;18;14
54;15;11;11;11;10;10;17;13;17;18;15;17;13;12;18;12;13;18
55;10;15;10;11;12;10;10;17;13;17;18;15;16;13;12;18;13;14
56;9;9;17;10;11;12;9;10;17;13;19;18;15;16;13;12;17;15
57;11;9;9;17;10;11;12;9;11;17;13;18;18;15;16;13;11;17
58;13;11;9;10;16;10;10;12;9;11;17;13;18;18;15;16;13;11
59;10;13;12;9;11;17;9;10;12;9;11;17;13;18;19;14;16;13
60;7;10;13;12;9;11;17;9;10;12;9;10;17;13;18;18;14;17
61;14;7;9;13;12;8;11;16;9;10;12;11;10;17;13;18;17;15
62;11;11;7;10;12;12;8;11;17;10;10;12;11;10;18;13;19;16
63;9;11;10;7;9;10;12;8;11;17;10;10;12;11;10;18;13;19
64;18;9;12;11;7;8;10;12;9;11;18;10;10;12;11;10;17;13
65;12;17;9;11;12;7;8;10;12;8;9;19;10;9;12;10;10;15
66;9;12;16;9;12;12;7;9;10;12;8;9;21;10;9;12;10;11
67;13;9;12;16;9;13;12;7;7;10;12;8;8;20;10;11;11;10
68;18;13;9;11;16;9;13;9;7;7;9;13;7;8;19;9;11;10
69;5;18;13;9;11;16;9;13;9;7;7;9;13;8;8;20;9;10
70;6;5;18;13;8;8;14;9;13;9;7;7;10;13;8;8;20;9
71;12;4;5;18;10;8;8;14;9;13;10;7;7;10;12;8;8;18
72;6;12;4;5;19;10;8;7;13;8;13;10;7;7;10;13;8;9
73;11;6;12;3;5;20;10;7;7;13;8;12;10;7;7;10;12;7
74;13;11;5;13;4;5;17;11;7;7;13;8;13;10;7;7;9;11
75;12;12;12;4;13;5;4;16;11;7;7;12;8;12;10;8;9;9
76;10;12;12;9;4;13;5;6;15;10;7;6;12;8;9;8;8;9
77;14;8;10;11;9;4;13;6;6;14;10;7;7;12;7;9;7;7
78;10;13;6;9;9;9;2;10;7;6;13;9;8;7;12;7;8;7
79;7;9;11;7;8;10;9;2;10;6;5;11;8;8;7;13;7;7
80;6;7;9;9;6;8;10;9;0;10;5;5;9;8;5;7;13;7
81;7;6;5;8;9;5;7;7;9;0;10;4;5;8;8;5;7;13
82;8;7;6;5;7;9;6;7;7;8;0;9;3;5;6;8;4;7
83;1;7;6;5;4;6;7;4;5;6;7;0;8;2;5;5;8;4
84;2;1;7;6;5;2;4;8;4;5;1;6;0;8;1;5;5;7
85;9;2;1;6;5;5;2;4;7;4;5;1;6;0;8;1;5;4
86;5;5;2;1;5;4;6;1;5;7;4;5;1;6;0;7;1;6
87;7;5;5;2;1;5;1;7;2;5;7;3;5;2;6;0;6;1
88;6;7;5;4;2;1;5;1;6;2;3;4;3;3;2;6;0;3
89;4;3;6;5;1;1;1;4;1;5;1;2;4;3;3;2;5;0
90;2;4;1;3;2;1;1;0;4;1;4;1;2;3;2;3;1;3
91;3;2;3;1;3;2;1;1;0;3;0;2;1;1;2;2;1;1
92;1;2;2;3;1;2;2;1;1;0;2;0;1;0;0;1;1;1
93;0;0;0;2;1;0;1;2;1;1;0;2;0;1;0;0;1;1
94;0;0;0;0;2;0;0;1;2;1;0;0;1;0;1;0;0;1
95;0;0;0;0;0;0;0;0;0;2;1;0;0;1;0;1;0;0
96;0;0;0;0;0;0;0;0;0;0;1;1;0;0;1;0;1;0
97;1;0;0;0;0;0;0;0;0;0;0;1;0;0;0;1;0;0
98;0;0;0;0;0;0;0;0;0;0;0;0;1;0;0;0;0;0
99;0;0;0;0;0;0;0;0;0;0;0;0;0;1;0;0;0;0
100 e oltre;0;0;0;0;0;0;0;0;0;0;0;0;0;0;1;1;1;0
Totale;1029;1013;1015;1012;1009;997;970;966;968;967;960;946;942;938;923;926;903;903
Età/Anno;2002;2003;2004;2005;2006;2007;2008;2009;2010;2011;2012;2013;2014;2015;2016;2017;2018;2019
Età;Femmine
0;8;10;8;11;6;7;7;4;9;8;12;7;3;7;8;6;7;3
1;4;8;13;8;11;6;7;7;3;8;8;12;7;2;7;10;6;8
2;11;4;7;13;9;10;7;7;8;3;8;8;12;7;2;7;8;6
3;9;10;4;8;13;9;10;6;7;8;5;8;8;9;7;2;5;8
4;9;10;9;4;9;13;9;10;6;7;8;4;8;8;9;7;3;6
5;9;9;10;9;4;9;13;8;10;6;7;8;3;8;7;9;5;2
6;10;9;8;9;9;4;8;12;9;10;6;7;9;5;8;7;9;5
7;6;10;9;8;9;9;4;8;12;9;11;7;7;9;3;8;6;9
8;7;6;9;10;9;9;9;4;8;12;10;10;7;7;9;5;7;6
9;6;7;6;9;10;9;9;9;4;8;12;9;10;7;5;9;6;7
10;9;6;6;6;9;10;10;10;9;4;8;12;10;11;7;6;9;6
11;8;10;6;6;6;9;11;10;10;9;4;8;11;10;11;7;6;9
12;15;8;10;6;6;6;9;11;10;10;9;5;8;11;10;11;5;8
13;6;15;8;9;6;5;6;9;11;10;10;8;5;8;11;11;11;5
14;12;6;16;9;9;5;5;6;10;11;10;10;8;5;8;12;10;11
15;8;12;6;16;9;9;5;5;6;10;11;9;11;8;5;7;12;10
16;8;9;12;6;16;9;8;5;5;6;10;11;9;11;8;5;7;10
17;13;8;9;12;7;16;8;10;5;5;6;10;11;9;11;8;5;8
18;8;13;8;9;12;5;16;8;10;5;5;7;10;11;9;11;9;5
19;12;8;13;8;10;12;5;15;8;10;5;5;7;10;11;8;11;9
20;13;13;8;13;8;9;12;6;15;8;10;4;5;7;10;11;7;11
21;11;12;13;9;13;7;9;10;5;15;8;10;3;5;7;10;11;8
22;16;11;12;13;9;13;7;8;11;6;15;9;10;3;5;7;10;10
23;7;16;9;11;13;9;13;8;8;11;5;16;10;12;3;5;6;11
24;15;7;15;9;12;13;10;13;8;9;11;5;16;10;12;4;5;6
25;13;14;6;16;9;12;13;10;14;7;10;11;3;16;10;12;4;5
26;10;12;14;6;16;9;12;12;9;14;4;9;11;4;17;10;12;5
27;11;11;13;13;8;17;9;11;10;9;13;5;9;11;4;18;10;10
28;10;12;11;12;13;8;15;10;10;11;9;13;4;9;10;7;16;9
29;13;10;13;12;13;14;6;14;10;10;11;8;11;4;9;11;9;16
30;7;12;10;14;10;13;14;7;14;10;10;11;7;10;3;8;9;9
31;11;7;13;10;14;8;12;13;9;13;11;10;11;7;9;3;8;9
32;18;11;5;13;11;14;8;13;11;8;12;9;10;11;7;9;4;8
33;11;18;10;7;13;11;13;8;12;12;7;12;10;9;11;8;9;4
34;16;11;18;10;8;14;11;13;8;10;15;7;11;9;9;11;8;8
35;16;12;10;19;9;9;14;12;14;8;10;14;8;11;10;9;11;8
36;13;17;13;12;20;9;10;14;12;14;8;10;13;8;8;11;9;11
37;22;13;17;14;12;20;8;10;13;12;15;10;10;10;9;8;12;8
38;9;23;12;16;13;12;20;8;11;12;12;15;10;10;9;10;9;12
39;17;8;23;12;16;12;11;20;10;13;13;11;16;10;11;10;7;10
40;15;16;8;23;12;14;12;11;20;12;13;13;12;16;10;11;10;6
41;19;14;16;9;22;11;12;13;11;20;13;14;13;12;15;10;9;10
42;18;18;14;18;8;22;11;12;13;11;20;11;14;13;12;15;10;10
43;15;16;19;14;19;8;22;12;12;13;11;19;11;14;13;13;15;10
44;17;15;16;20;15;18;8;21;12;12;13;12;17;10;14;13;13;13
45;14;16;15;15;19;15;17;8;21;12;12;13;13;20;9;14;13;12
46;7;14;16;15;15;19;15;18;8;21;13;13;13;13;21;11;14;13
47;14;7;13;15;16;15;19;14;18;8;21;14;13;13;13;20;11;13
48;18;14;7;13;15;16;15;19;15;18;8;21;14;13;13;13;17;11
49;9;19;14;7;13;14;16;16;18;16;17;7;20;14;13;11;13;17
50;6;9;19;14;7;13;14;16;16;17;16;17;7;21;14;13;11;14
51;14;6;9;20;14;7;13;15;16;16;17;16;17;7;21;14;13;12
52;13;13;6;10;20;15;7;13;16;16;16;17;16;18;7;21;14;13
53;7;13;14;6;10;19;15;7;14;16;16;15;17;16;18;7;21;13
54;12;7;13;14;6;10;18;15;7;14;16;16;15;17;16;18;7;21
55;15;12;7;14;14;6;9;18;14;7;14;16;16;15;17;17;18;8
56;8;15;12;7;14;14;6;10;18;14;7;14;16;17;15;17;17;18
57;14;8;15;13;7;14;14;6;10;19;14;7;14;16;17;15;17;17
58;11;13;8;15;13;7;14;14;6;11;18;14;7;13;16;16;17;16
59;8;11;12;8;15;13;7;14;14;6;11;18;15;7;13;16;16;16
60;4;8;12;11;9;15;14;6;14;13;6;9;18;15;7;13;16;16
61;12;4;8;12;11;9;14;14;6;14;14;6;9;18;15;7;13;15
62;11;12;2;8;12;11;9;14;14;6;13;14;6;9;18;15;7;13
63;10;11;11;2;8;12;9;9;14;14;6;13;14;6;9;18;15;7
64;15;9;11;11;2;8;12;10;9;14;14;6;13;14;6;9;18;16
65;21;15;8;11;11;2;8;12;10;9;14;16;6;15;14;9;10;18
66;11;21;14;8;12;11;2;8;12;10;9;13;16;6;15;14;9;10
67;11;11;21;14;8;13;11;3;8;11;9;9;14;16;6;15;13;9
68;11;11;12;20;14;9;12;11;3;8;11;9;9;14;14;7;15;11
69;9;12;11;11;19;14;9;12;11;3;8;11;8;9;14;14;8;14
70;14;10;12;11;11;19;13;9;12;11;3;8;11;8;8;14;14;7
71;16;14;11;13;11;11;19;13;8;12;11;3;7;11;8;8;14;14
72;11;16;16;11;13;11;10;19;13;8;12;12;3;7;11;9;8;14
73;13;11;16;15;11;13;10;10;18;12;8;12;12;2;7;11;9;9
74;14;13;11;16;13;11;12;9;10;18;10;8;12;11;2;7;11;10
75;20;13;12;11;16;12;12;13;9;9;19;11;8;12;11;2;7;11
76;10;19;13;12;10;15;12;12;13;9;9;19;11;7;12;11;2;7
77;15;8;18;14;13;9;15;13;12;13;9;8;19;11;7;12;11;2
78;15;14;7;17;14;13;8;15;13;12;11;9;7;18;12;7;12;10
79;11;15;13;7;17;14;13;10;12;12;11;12;8;7;18;12;7;11
80;15;11;16;15;7;17;12;13;10;12;11;11;11;8;5;18;12;7
81;12;13;11;13;12;6;16;11;10;10;12;11;12;11;9;5;16;12
82;8;13;12;11;12;12;7;16;11;10;9;14;11;12;11;9;5;17
83;4;8;14;12;11;13;12;4;15;9;10;8;12;10;12;11;9;4
84;5;4;5;12;11;10;10;10;4;15;8;10;7;11;8;11;9;9
85;10;6;3;4;10;11;6;10;9;5;14;7;9;6;10;8;10;8
86;7;9;6;3;4;10;10;6;11;9;5;14;6;9;6;7;5;8
87;6;6;9;6;3;3;9;10;6;10;8;5;12;6;9;6;5;6
88;5;6;8;7;6;3;2;7;9;6;9;6;6;11;5;7;4;5
89;7;2;5;7;5;4;3;2;6;7;5;9;6;6;10;4;6;4
90;5;6;2;3;6;5;3;3;2;7;7;4;8;6;4;9;4;5
91;2;5;6;2;3;6;4;3;3;1;6;6;3;8;3;4;8;3
92;3;2;3;5;3;3;4;4;2;2;1;3;5;3;8;3;4;8
93;5;3;2;3;5;1;3;4;3;2;2;1;2;4;2;8;2;3
94;2;4;2;1;3;4;1;3;3;3;1;2;0;0;6;2;7;1
95;2;2;2;1;0;2;3;1;3;3;3;1;2;0;0;6;2;7
96;1;2;0;2;0;0;1;3;2;3;2;3;1;2;0;0;5;2
97;0;1;1;1;2;0;0;1;2;2;2;1;1;0;2;0;0;4
98;0;0;0;0;1;2;0;0;0;2;2;2;1;1;0;2;0;0
99;1;0;0;0;0;1;2;0;0;0;2;2;2;0;1;0;2;0
100 e oltre;1;2;1;1;0;0;0;2;0;0;0;1;3;5;3;2;2;3
Totale;1046;1036;1022;1031;1032;1019;989;991;985;986;986;980;963;959;944;959;935;922

"Ricostruzione della popolazione intercensuaria - Popolazione al 1° gennaio per età"
"Cittadinanza straniera - Comune: Caramanico Terme"
Età/Anno;2002;2003;2004;2005;2006;2007;2008;2009;2010;2011;2012;2013;2014;2015;2016;2017;2018;2019
Età;Totale
0;1;1;0;0;0;1;2;2;0;1;1;0;3;0;1;1;2;0
1;1;0;1;0;0;0;1;2;2;0;1;1;0;5;0;1;1;1
2;2;1;0;1;0;0;0;2;2;2;0;2;1;0;5;0;0;1
3;0;2;0;0;1;0;0;1;1;2;2;0;2;1;0;4;0;0
4;0;0;2;0;0;1;0;0;1;1;1;2;0;2;0;0;2;0
5;1;0;0;2;0;0;1;1;0;1;1;1;4;0;2;0;0;2
6;0;1;0;0;2;0;0;1;2;0;1;1;1;4;0;2;0;0
7;2;1;0;0;0;2;0;0;1;1;0;1;1;1;4;0;2;0
8;3;3;1;0;0;0;2;0;0;1;1;0;2;1;0;2;0;1
9;0;3;2;1;0;0;0;3;0;0;2;1;0;1;1;0;0;0
10;1;1;2;2;2;0;0;0;4;0;0;2;1;0;1;0;0;0
11;2;1;1;2;1;2;0;0;0;4;1;0;1;1;0;0;0;0
12;0;2;1;1;2;1;2;0;0;0;4;1;1;1;1;0;0;0
13;1;0;2;1;1;3;1;0;0;0;0;5;0;0;1;0;0;0
14;0;1;0;2;2;1;3;1;0;0;0;0;6;0;0;0;0;0
15;0;0;1;0;0;2;1;2;2;0;0;1;0;7;0;0;0;0
16;0;0;1;1;0;2;2;1;2;2;0;0;2;0;6;0;0;0
17;1;1;2;1;1;0;2;1;1;2;2;0;0;1;0;5;0;0
18;0;1;1;2;1;1;0;2;1;1;2;1;0;0;1;0;3;0
19;0;0;1;1;2;2;1;0;2;1;3;0;1;0;0;1;0;2
20;0;0;1;1;1;1;2;1;0;2;1;1;0;1;0;0;0;0
21;0;0;0;1;1;3;1;3;4;0;2;1;1;0;0;0;0;2
22;0;0;1;2;1;1;3;1;2;3;0;2;1;1;0;0;0;4
23;3;0;1;1;2;1;1;3;1;2;3;0;1;1;1;0;1;2
24;1;2;0;1;1;3;2;1;2;1;2;3;0;1;1;1;0;3
25;1;3;1;2;2;3;2;2;1;2;1;2;4;0;1;1;0;2
26;0;1;4;1;2;2;3;3;1;1;2;2;2;4;0;1;1;3
27;1;0;1;3;1;3;2;5;3;1;2;4;2;2;4;0;1;2
28;5;3;0;2;3;0;3;2;4;3;1;2;4;3;2;4;0;1
29;1;6;0;0;2;3;2;3;3;4;2;0;3;4;3;1;3;0
30;1;3;5;0;0;3;2;2;3;2;3;2;0;2;5;3;1;3
31;0;1;1;5;0;1;3;2;4;3;2;4;2;0;2;5;3;3
32;0;0;1;2;3;1;1;2;2;2;4;2;3;2;0;2;3;2
33;1;1;0;2;2;4;0;0;2;1;2;4;2;4;2;0;1;3
34;0;1;1;0;3;1;4;0;0;2;2;2;4;2;5;2;0;1
35;2;0;1;1;0;4;2;3;0;1;1;4;1;3;1;6;2;0
36;1;2;0;1;1;1;2;2;2;0;1;0;5;1;3;2;6;1
37;0;2;2;0;2;1;1;1;1;2;0;1;0;4;2;3;2;4
38;0;0;2;2;0;3;0;1;1;1;2;0;1;0;4;1;2;1
39;0;0;0;2;2;0;3;0;1;1;2;3;0;1;1;1;0;3
40;0;0;0;0;2;2;0;2;0;1;1;2;4;0;1;1;1;0
41;1;0;0;0;0;2;2;0;2;0;1;1;2;4;0;1;1;1
42;0;1;0;0;0;0;3;0;1;2;0;1;1;2;4;0;1;1
43;3;0;1;0;0;0;0;3;1;1;1;1;1;1;1;3;0;1
44;1;3;0;1;0;0;0;0;3;1;2;1;1;1;1;1;2;0
45;1;2;6;0;1;0;0;0;0;3;1;1;1;2;1;1;1;2
46;1;1;2;6;0;2;0;0;0;0;3;1;1;1;1;1;1;1
47;0;1;1;2;4;0;2;0;0;0;0;3;2;1;0;1;1;1
48;1;0;1;1;2;5;0;2;1;0;0;0;3;2;1;0;1;1
49;0;1;0;1;1;2;5;0;3;0;0;0;0;3;2;2;0;1
50;1;0;1;0;1;1;4;4;0;3;0;0;0;0;3;2;2;0
51;0;1;0;1;0;1;1;4;3;0;2;0;0;0;0;2;1;1
52;0;0;0;0;0;0;1;1;2;3;0;2;0;0;0;0;2;2
53;0;0;0;0;0;1;0;1;1;2;4;0;2;0;0;0;0;2
54;0;1;0;0;0;0;2;0;1;1;3;4;1;2;0;0;0;0
55;0;0;2;0;0;0;0;2;0;1;1;3;5;1;2;0;0;0
56;0;0;0;0;0;0;0;0;1;0;1;0;4;5;1;2;0;0
57;0;0;0;0;0;0;0;0;0;1;0;1;0;4;4;0;1;0
58;0;0;1;0;0;0;0;0;0;0;1;0;1;0;4;3;1;1
59;0;0;0;0;0;0;0;0;0;0;0;1;0;1;0;4;4;2
60;0;0;0;0;0;0;0;0;1;0;0;0;1;0;1;0;4;2
61;0;0;0;0;0;0;0;0;0;1;0;0;1;0;0;1;0;2
62;0;0;0;0;0;1;0;0;0;0;1;0;0;2;0;0;1;0
63;0;0;0;0;0;0;0;0;0;0;0;1;0;0;2;0;0;0
64;0;0;0;0;0;0;0;0;0;0;0;0;1;0;0;2;0;0
65;0;0;0;0;0;0;0;0;0;0;0;0;0;1;0;0;2;0
66;0;0;0;0;0;0;0;0;1;0;0;0;0;0;1;0;0;3
67;0;0;0;0;0;0;0;0;0;1;0;0;0;0;0;1;0;2
68;0;0;0;0;0;0;0;0;0;0;1;0;0;0;0;0;1;0
69;0;0;0;0;0;0;0;0;0;0;0;1;0;0;0;0;0;1
70;1;0;0;0;0;0;0;0;0;0;0;0;1;0;0;0;0;1
71;0;1;0;0;0;0;0;0;0;0;0;0;0;1;0;0;0;0
72;0;0;0;0;0;0;0;0;0;0;0;0;0;0;0;0;0;0
73;0;0;0;1;0;0;0;0;0;0;0;0;0;0;0;0;0;0
74;0;0;0;0;1;0;0;0;0;0;0;0;0;0;0;0;0;0
75;0;0;0;0;0;1;0;0;0;0;0;0;0;0;0;0;0;0
76;0;0;0;0;0;0;1;0;0;0;0;0;0;0;0;0;0;0
77;0;0;0;0;0;0;0;1;0;0;0;0;0;0;0;0;0;0
78;0;0;0;0;0;0;0;0;1;0;0;0;0;0;0;0;0;0
79;0;0;0;0;0;0;0;0;0;1;0;0;0;0;0;0;0;0
80;0;0;0;1;0;0;0;0;0;0;1;0;0;0;0;0;0;0
81;0;0;0;0;1;0;0;0;0;0;0;1;0;0;0;0;0;0
82;0;0;0;0;0;0;0;0;0;0;0;0;1;0;0;0;0;0
83;0;0;0;0;0;0;0;0;0;0;0;0;0;1;0;0;0;0
84;0;0;0;0;0;0;0;0;0;0;0;0;0;0;1;0;0;0
85;0;0;0;0;0;0;0;0;0;0;0;0;0;0;0;1;0;0
86;0;0;0;0;0;0;0;0;0;0;0;0;0;0;0;0;1;0
87;0;0;0;0;0;0;0;0;0;0;0;0;0;0;0;0;0;1
88;0;0;0;0;0;0;0;0;1;0;0;0;0;0;0;0;0;0
89;0;0;0;0;0;0;0;0;0;0;0;0;0;0;0;0;0;0
90;0;0;0;0;0;0;0;0;0;0;0;0;0;0;0;0;0;0
91;0;0;0;0;0;0;0;0;0;0;0;0;0;0;0;0;0;0
92;0;0;0;0;0;0;0;0;0;0;0;0;0;0;0;0;0;0
93;0;0;0;0;0;0;0;0;0;0;0;0;0;0;0;0;0;0
94;0;0;0;0;0;0;0;0;0;0;0;0;0;0;0;0;0;0
95;0;0;0;0;0;0;0;0;0;0;0;0;0;0;0;0;0;0
96;0;0;0;0;0;0;0;0;0;0;0;0;0;0;0;0;0;0
97;0;0;0;0;0;0;0;0;0;0;0;0;0;0;0;0;0;0
98;0;0;0;0;0;0;0;0;0;0;0;0;0;0;0;0;0;0
99;0;0;0;0;0;0;0;0;0;0;0;0;0;0;0;0;0;0
100 e oltre;0;0;0;0;0;0;0;0;0;0;0;0;0;0;0;0;0;0
Totale;42;56;55;60;57;75;78;76;81;75;81;83;96;96;91;78;65;76
Età/Anno;2002;2003;2004;2005;2006;2007;2008;2009;2010;2011;2012;2013;2014;2015;2016;2017;2018;2019
Età;Maschi
0;1;0;0;0;0;0;0;1;0;1;1;0;0;0;1;1;2;0
1;1;0;0;0;0;0;0;0;1;0;1;1;0;0;0;1;1;1
2;1;1;0;0;0;0;0;0;0;1;0;2;1;0;1;0;0;1
3;0;1;0;0;0;0;0;1;0;0;1;0;2;1;0;1;0;0
4;0;0;1;0;0;0;0;0;1;0;0;1;0;2;0;0;1;0
5;1;0;0;1;0;0;0;0;0;1;0;0;1;0;2;0;0;1
6;0;1;0;0;1;0;0;0;0;0;1;0;0;1;0;2;0;0
7;0;0;0;0;0;1;0;0;0;0;0;1;0;0;1;0;2;0
8;1;1;0;0;0;0;1;0;0;0;0;0;1;0;0;0;0;1
9;0;1;1;0;0;0;0;2;0;0;1;0;0;1;0;0;0;0
10;0;0;1;1;1;0;0;0;3;0;0;1;0;0;1;0;0;0
11;2;0;0;1;1;1;0;0;0;3;0;0;0;0;0;0;0;0
12;0;2;0;0;1;1;1;0;0;0;3;0;1;0;0;0;0;0
13;0;0;2;0;0;2;1;0;0;0;0;4;0;0;0;0;0;0
14;0;0;0;2;1;0;2;1;0;0;0;0;5;0;0;0;0;0
15;0;0;0;0;0;1;0;2;1;0;0;1;0;5;0;0;0;0
16;0;0;1;0;0;0;1;0;2;1;0;0;1;0;4;0;0;0
17;0;1;2;1;0;0;0;0;0;2;1;0;0;1;0;3;0;0
18;0;0;1;2;1;0;0;0;0;0;2;1;0;0;1;0;2;0
19;0;0;0;1;2;1;0;0;0;0;1;0;1;0;0;1;0;2
20;0;0;1;0;1;1;1;0;0;0;0;0;0;1;0;0;0;0
21;0;0;0;1;0;2;1;1;0;0;0;0;1;0;0;0;0;2
22;0;0;0;1;1;0;2;1;1;0;0;0;0;1;0;0;0;4
23;1;0;1;0;1;1;0;2;1;1;0;0;0;0;1;0;0;1
24;1;1;0;1;0;1;1;0;1;1;1;0;0;0;0;1;0;2
25;0;3;1;0;2;2;1;1;0;1;1;1;1;0;0;0;0;1
26;0;0;3;1;0;2;2;2;1;0;1;2;1;1;0;0;0;3
27;1;0;0;2;1;0;2;4;2;1;0;3;2;1;1;0;0;1
28;0;2;0;0;2;0;0;2;4;2;1;0;3;2;1;1;0;0
29;1;0;0;0;0;2;0;0;3;4;2;0;0;3;2;1;1;0
30;0;2;0;0;0;1;2;0;0;2;3;2;0;0;4;2;1;1
31;0;0;0;0;0;0;1;2;1;0;2;3;2;0;0;4;2;3
32;0;0;1;0;0;0;0;0;2;0;0;2;3;2;0;0;3;1
33;1;0;0;2;0;0;0;0;0;1;0;1;1;4;2;0;0;2
34;0;1;0;0;2;0;0;0;0;0;1;0;1;1;5;2;0;0
35;2;0;1;0;0;2;1;0;0;0;0;1;0;1;1;5;2;0
36;1;2;0;1;0;0;0;1;0;0;0;0;1;0;1;2;5;1
37;0;1;2;0;1;0;0;0;0;0;0;0;0;1;1;1;2;3
38;0;0;1;2;0;1;0;0;0;0;0;0;0;0;1;1;1;1
39;0;0;0;1;2;0;1;0;0;0;1;1;0;0;0;0;0;1
40;0;0;0;0;1;2;0;1;0;0;0;1;1;0;0;0;0;0
41;1;0;0;0;0;1;2;0;1;0;0;0;1;1;0;0;0;0
42;0;1;0;0;0;0;1;0;0;1;0;0;0;1;1;0;0;0
43;2;0;1;0;0;0;0;1;1;0;1;0;0;0;0;1;0;0
44;0;2;0;1;0;0;0;0;1;0;1;1;0;0;0;0;0;0
45;1;1;3;0;1;0;0;0;0;1;0;0;1;0;0;0;0;0
46;0;1;1;3;0;1;0;0;0;0;1;0;0;1;0;0;0;0
47;0;0;1;1;2;0;1;0;0;0;0;1;1;0;0;0;0;0
48;1;0;0;1;1;2;0;1;0;0;0;0;1;1;0;0;0;0
49;0;1;0;0;1;1;2;0;2;0;0;0;0;1;1;0;0;0
50;0;0;1;0;0;1;1;1;0;2;0;0;0;0;1;1;0;0
51;0;0;0;1;0;0;1;1;1;0;1;0;0;0;0;1;0;0
52;0;0;0;0;0;0;0;1;1;1;0;1;0;0;0;0;1;0
53;0;0;0;0;0;1;0;0;1;1;2;0;1;0;0;0;0;1
54;0;1;0;0;0;0;1;0;0;1;2;2;0;1;0;0;0;0
55;0;0;0;0;0;0;0;1;0;0;1;2;3;0;1;0;0;0
56;0;0;0;0;0;0;0;0;0;0;0;0;2;3;0;1;0;0
57;0;0;0;0;0;0;0;0;0;0;0;0;0;2;2;0;0;0
58;0;0;0;0;0;0;0;0;0;0;0;0;0;0;2;1;0;0
59;0;0;0;0;0;0;0;0;0;0;0;0;0;0;0;2;2;0
60;0;0;0;0;0;0;0;0;1;0;0;0;0;0;0;0;2;1
61;0;0;0;0;0;0;0;0;0;1;0;0;0;0;0;0;0;1
62;0;0;0;0;0;1;0;0;0;0;1;0;0;0;0;0;1;0
63;0;0;0;0;0;0;0;0;0;0;0;1;0;0;0;0;0;0
64;0;0;0;0;0;0;0;0;0;0;0;0;1;0;0;0;0;0
65;0;0;0;0;0;0;0;0;0;0;0;0;0;1;0;0;0;0
66;0;0;0;0;0;0;0;0;0;0;0;0;0;0;1;0;0;1
67;0;0;0;0;0;0;0;0;0;0;0;0;0;0;0;1;0;0
68;0;0;0;0;0;0;0;0;0;0;0;0;0;0;0;0;1;0
69;0;0;0;0;0;0;0;0;0;0;0;0;0;0;0;0;0;1
70;0;0;0;0;0;0;0;0;0;0;0;0;0;0;0;0;0;0
71;0;0;0;0;0;0;0;0;0;0;0;0;0;0;0;0;0;0
72;0;0;0;0;0;0;0;0;0;0;0;0;0;0;0;0;0;0
73;0;0;0;0;0;0;0;0;0;0;0;0;0;0;0;0;0;0
74;0;0;0;0;0;0;0;0;0;0;0;0;0;0;0;0;0;0
75;0;0;0;0;0;0;0;0;0;0;0;0;0;0;0;0;0;0
76;0;0;0;0;0;0;0;0;0;0;0;0;0;0;0;0;0;0
77;0;0;0;0;0;0;0;0;0;0;0;0;0;0;0;0;0;0
78;0;0;0;0;0;0;0;0;0;0;0;0;0;0;0;0;0;0
79;0;0;0;0;0;0;0;0;0;0;0;0;0;0;0;0;0;0
80;0;0;0;0;0;0;0;0;0;0;0;0;0;0;0;0;0;0
81;0;0;0;0;0;0;0;0;0;0;0;0;0;0;0;0;0;0
82;0;0;0;0;0;0;0;0;0;0;0;0;0;0;0;0;0;0
83;0;0;0;0;0;0;0;0;0;0;0;0;0;0;0;0;0;0
84;0;0;0;0;0;0;0;0;0;0;0;0;0;0;0;0;0;0
85;0;0;0;0;0;0;0;0;0;0;0;0;0;0;0;0;0;0
86;0;0;0;0;0;0;0;0;0;0;0;0;0;0;0;0;0;0
87;0;0;0;0;0;0;0;0;0;0;0;0;0;0;0;0;0;0
88;0;0;0;0;0;0;0;0;1;0;0;0;0;0;0;0;0;0
89;0;0;0;0;0;0;0;0;0;0;0;0;0;0;0;0;0;0
90;0;0;0;0;0;0;0;0;0;0;0;0;0;0;0;0;0;0
91;0;0;0;0;0;0;0;0;0;0;0;0;0;0;0;0;0;0
92;0;0;0;0;0;0;0;0;0;0;0;0;0;0;0;0;0;0
93;0;0;0;0;0;0;0;0;0;0;0;0;0;0;0;0;0;0
94;0;0;0;0;0;0;0;0;0;0;0;0;0;0;0;0;0;0
95;0;0;0;0;0;0;0;0;0;0;0;0;0;0;0;0;0;0
96;0;0;0;0;0;0;0;0;0;0;0;0;0;0;0;0;0;0
97;0;0;0;0;0;0;0;0;0;0;0;0;0;0;0;0;0;0
98;0;0;0;0;0;0;0;0;0;0;0;0;0;0;0;0;0;0
99;0;0;0;0;0;0;0;0;0;0;0;0;0;0;0;0;0;0
100 e oltre;0;0;0;0;0;0;0;0;0;0;0;0;0;0;0;0;0;0
Totale;20;27;27;28;27;32;30;30;34;30;35;37;41;41;40;37;32;38
Età/Anno;2002;2003;2004;2005;2006;2007;2008;2009;2010;2011;2012;2013;2014;2015;2016;2017;2018;2019
Età;Femmine
0;0;1;0;0;0;1;2;1;0;0;0;0;3;0;0;0;0;0
1;0;0;1;0;0;0;1;2;1;0;0;0;0;5;0;0;0;0
2;1;0;0;1;0;0;0;2;2;1;0;0;0;0;4;0;0;0
3;0;1;0;0;1;0;0;0;1;2;1;0;0;0;0;3;0;0
4;0;0;1;0;0;1;0;0;0;1;1;1;0;0;0;0;1;0
5;0;0;0;1;0;0;1;1;0;0;1;1;3;0;0;0;0;1
6;0;0;0;0;1;0;0;1;2;0;0;1;1;3;0;0;0;0
7;2;1;0;0;0;1;0;0;1;1;0;0;1;1;3;0;0;0
8;2;2;1;0;0;0;1;0;0;1;1;0;1;1;0;2;0;0
9;0;2;1;1;0;0;0;1;0;0;1;1;0;0;1;0;0;0
10;1;1;1;1;1;0;0;0;1;0;0;1;1;0;0;0;0;0
11;0;1;1;1;0;1;0;0;0;1;1;0;1;1;0;0;0;0
12;0;0;1;1;1;0;1;0;0;0;1;1;0;1;1;0;0;0
13;1;0;0;1;1;1;0;0;0;0;0;1;0;0;1;0;0;0
14;0;1;0;0;1;1;1;0;0;0;0;0;1;0;0;0;0;0
15;0;0;1;0;0;1;1;0;1;0;0;0;0;2;0;0;0;0
16;0;0;0;1;0;2;1;1;0;1;0;0;1;0;2;0;0;0
17;1;0;0;0;1;0;2;1;1;0;1;0;0;0;0;2;0;0
18;0;1;0;0;0;1;0;2;1;1;0;0;0;0;0;0;1;0
19;0;0;1;0;0;1;1;0;2;1;2;0;0;0;0;0;0;0
20;0;0;0;1;0;0;1;1;0;2;1;1;0;0;0;0;0;0
21;0;0;0;0;1;1;0;2;4;0;2;1;0;0;0;0;0;0
22;0;0;1;1;0;1;1;0;1;3;0;2;1;0;0;0;0;0
23;2;0;0;1;1;0;1;1;0;1;3;0;1;1;0;0;1;1
24;0;1;0;0;1;2;1;1;1;0;1;3;0;1;1;0;0;1
25;1;0;0;2;0;1;1;1;1;1;0;1;3;0;1;1;0;1
26;0;1;1;0;2;0;1;1;0;1;1;0;1;3;0;1;1;0
27;0;0;1;1;0;3;0;1;1;0;2;1;0;1;3;0;1;1
28;5;1;0;2;1;0;3;0;0;1;0;2;1;1;1;3;0;1
29;0;6;0;0;2;1;2;3;0;0;0;0;3;1;1;0;2;0
30;1;1;5;0;0;2;0;2;3;0;0;0;0;2;1;1;0;2
31;0;1;1;5;0;1;2;0;3;3;0;1;0;0;2;1;1;0
32;0;0;0;2;3;1;1;2;0;2;4;0;0;0;0;2;0;1
33;0;1;0;0;2;4;0;0;2;0;2;3;1;0;0;0;1;1
34;0;0;1;0;1;1;4;0;0;2;1;2;3;1;0;0;0;1
35;0;0;0;1;0;2;1;3;0;1;1;3;1;2;0;1;0;0
36;0;0;0;0;1;1;2;1;2;0;1;0;4;1;2;0;1;0
37;0;1;0;0;1;1;1;1;1;2;0;1;0;3;1;2;0;1
38;0;0;1;0;0;2;0;1;1;1;2;0;1;0;3;0;1;0
39;0;0;0;1;0;0;2;0;1;1;1;2;0;1;1;1;0;2
40;0;0;0;0;1;0;0;1;0;1;1;1;3;0;1;1;1;0
41;0;0;0;0;0;1;0;0;1;0;1;1;1;3;0;1;1;1
42;0;0;0;0;0;0;2;0;1;1;0;1;1;1;3;0;1;1
43;1;0;0;0;0;0;0;2;0;1;0;1;1;1;1;2;0;1
44;1;1;0;0;0;0;0;0;2;1;1;0;1;1;1;1;2;0
45;0;1;3;0;0;0;0;0;0;2;1;1;0;2;1;1;1;2
46;1;0;1;3;0;1;0;0;0;0;2;1;1;0;1;1;1;1
47;0;1;0;1;2;0;1;0;0;0;0;2;1;1;0;1;1;1
48;0;0;1;0;1;3;0;1;1;0;0;0;2;1;1;0;1;1
49;0;0;0;1;0;1;3;0;1;0;0;0;0;2;1;2;0;1
50;1;0;0;0;1;0;3;3;0;1;0;0;0;0;2;1;2;0
51;0;1;0;0;0;1;0;3;2;0;1;0;0;0;0;1;1;1
52;0;0;0;0;0;0;1;0;1;2;0;1;0;0;0;0;1;2
53;0;0;0;0;0;0;0;1;0;1;2;0;1;0;0;0;0;1
54;0;0;0;0;0;0;1;0;1;0;1;2;1;1;0;0;0;0
55;0;0;2;0;0;0;0;1;0;1;0;1;2;1;1;0;0;0
56;0;0;0;0;0;0;0;0;1;0;1;0;2;2;1;1;0;0
57;0;0;0;0;0;0;0;0;0;1;0;1;0;2;2;0;1;0
58;0;0;1;0;0;0;0;0;0;0;1;0;1;0;2;2;1;1
59;0;0;0;0;0;0;0;0;0;0;0;1;0;1;0;2;2;2
60;0;0;0;0;0;0;0;0;0;0;0;0;1;0;1;0;2;1
61;0;0;0;0;0;0;0;0;0;0;0;0;1;0;0;1;0;1
62;0;0;0;0;0;0;0;0;0;0;0;0;0;2;0;0;0;0
63;0;0;0;0;0;0;0;0;0;0;0;0;0;0;2;0;0;0
64;0;0;0;0;0;0;0;0;0;0;0;0;0;0;0;2;0;0
65;0;0;0;0;0;0;0;0;0;0;0;0;0;0;0;0;2;0
66;0;0;0;0;0;0;0;0;1;0;0;0;0;0;0;0;0;2
67;0;0;0;0;0;0;0;0;0;1;0;0;0;0;0;0;0;2
68;0;0;0;0;0;0;0;0;0;0;1;0;0;0;0;0;0;0
69;0;0;0;0;0;0;0;0;0;0;0;1;0;0;0;0;0;0
70;1;0;0;0;0;0;0;0;0;0;0;0;1;0;0;0;0;1
71;0;1;0;0;0;0;0;0;0;0;0;0;0;1;0;0;0;0
72;0;0;0;0;0;0;0;0;0;0;0;0;0;0;0;0;0;0
73;0;0;0;1;0;0;0;0;0;0;0;0;0;0;0;0;0;0
74;0;0;0;0;1;0;0;0;0;0;0;0;0;0;0;0;0;0
75;0;0;0;0;0;1;0;0;0;0;0;0;0;0;0;0;0;0
76;0;0;0;0;0;0;1;0;0;0;0;0;0;0;0;0;0;0
77;0;0;0;0;0;0;0;1;0;0;0;0;0;0;0;0;0;0
78;0;0;0;0;0;0;0;0;1;0;0;0;0;0;0;0;0;0
79;0;0;0;0;0;0;0;0;0;1;0;0;0;0;0;0;0;0
80;0;0;0;1;0;0;0;0;0;0;1;0;0;0;0;0;0;0
81;0;0;0;0;1;0;0;0;0;0;0;1;0;0;0;0;0;0
82;0;0;0;0;0;0;0;0;0;0;0;0;1;0;0;0;0;0
83;0;0;0;0;0;0;0;0;0;0;0;0;0;1;0;0;0;0
84;0;0;0;0;0;0;0;0;0;0;0;0;0;0;1;0;0;0
85;0;0;0;0;0;0;0;0;0;0;0;0;0;0;0;1;0;0
86;0;0;0;0;0;0;0;0;0;0;0;0;0;0;0;0;1;0
87;0;0;0;0;0;0;0;0;0;0;0;0;0;0;0;0;0;1
88;0;0;0;0;0;0;0;0;0;0;0;0;0;0;0;0;0;0
89;0;0;0;0;0;0;0;0;0;0;0;0;0;0;0;0;0;0
90;0;0;0;0;0;0;0;0;0;0;0;0;0;0;0;0;0;0
91;0;0;0;0;0;0;0;0;0;0;0;0;0;0;0;0;0;0
92;0;0;0;0;0;0;0;0;0;0;0;0;0;0;0;0;0;0
93;0;0;0;0;0;0;0;0;0;0;0;0;0;0;0;0;0;0
94;0;0;0;0;0;0;0;0;0;0;0;0;0;0;0;0;0;0
95;0;0;0;0;0;0;0;0;0;0;0;0;0;0;0;0;0;0
96;0;0;0;0;0;0;0;0;0;0;0;0;0;0;0;0;0;0
97;0;0;0;0;0;0;0;0;0;0;0;0;0;0;0;0;0;0
98;0;0;0;0;0;0;0;0;0;0;0;0;0;0;0;0;0;0
99;0;0;0;0;0;0;0;0;0;0;0;0;0;0;0;0;0;0
100 e oltre;0;0;0;0;0;0;0;0;0;0;0;0;0;0;0;0;0;0
Totale;22;29;28;32;30;43;48;46;47;45;46;46;55;55;51;41;33;38
