"Popolazione per età, vista per singola area - Comune: 111094 - Ussaramanna"

"Ricostruzione della popolazione intercensuaria - Popolazione al 1° gennaio per età"
"Tutte le cittadinanze - Comune: Ussaramanna"
Età/Anno;2002;2003;2004;2005;2006;2007;2008;2009;2010;2011;2012;2013;2014;2015;2016;2017;2018;2019
Età;Totale
0;3;3;6;3;3;5;4;5;2;3;1;3;4;3;3;3;2;0
1;4;3;3;8;3;3;6;4;3;2;3;1;3;4;3;3;1;2
2;3;4;3;3;8;3;3;6;4;4;2;3;2;4;4;3;3;2
3;3;3;4;3;2;8;3;3;5;4;3;2;3;2;4;4;3;3
4;6;3;4;4;3;2;8;3;3;5;4;3;2;3;1;4;4;3
5;5;6;3;4;4;3;2;8;4;3;5;4;3;2;4;1;3;4
6;4;5;6;3;4;5;4;3;8;4;3;5;4;3;2;5;1;2
7;7;3;5;6;3;4;5;4;2;8;4;3;5;4;3;2;5;1
8;5;7;4;5;5;3;5;5;4;4;8;4;3;5;4;3;2;5
9;6;5;7;4;5;6;3;5;5;4;3;8;4;3;4;4;3;2
10;2;6;5;7;4;5;6;3;5;5;4;3;8;4;3;4;4;3
11;5;2;6;4;6;4;7;6;3;5;5;4;3;8;4;3;4;2
12;3;5;2;6;4;6;5;6;6;3;5;5;4;3;9;4;3;4
13;4;2;5;2;6;4;6;4;6;6;3;5;4;4;3;9;4;3
14;5;4;2;5;2;6;5;6;4;6;6;3;6;4;4;3;9;4
15;4;5;4;2;5;2;7;5;6;4;6;6;3;6;5;4;3;9
16;3;4;5;4;2;5;2;7;5;6;4;6;6;3;5;5;4;3
17;2;3;4;5;4;2;5;2;7;5;6;4;6;6;3;5;5;4
18;11;2;3;4;5;4;2;5;2;7;5;5;4;6;6;3;5;5
19;7;9;3;3;3;4;4;2;5;2;6;5;5;4;6;6;3;5
20;8;6;9;3;3;3;4;4;2;5;2;6;4;4;4;6;5;3
21;7;8;6;8;2;3;3;4;4;2;5;2;6;4;4;4;6;5
22;4;7;8;6;8;2;2;4;4;4;1;5;2;6;4;4;4;6
23;11;3;8;6;6;8;2;2;4;4;4;1;5;2;6;5;4;5
24;6;11;4;6;5;6;8;2;2;4;4;4;1;6;2;6;5;4
25;7;8;11;4;6;5;6;8;2;3;4;4;4;1;5;2;5;5
26;11;8;8;12;6;6;4;6;6;2;3;4;4;4;2;5;4;4
27;8;9;7;7;11;5;5;4;6;8;2;3;3;4;5;2;4;4
28;8;7;9;7;5;11;4;5;4;7;8;2;3;4;4;5;2;4
29;4;5;6;8;5;6;11;3;6;6;7;8;2;4;4;4;4;2
30;6;4;6;8;8;5;5;12;3;5;5;7;7;2;3;4;4;3
31;7;6;6;6;9;9;5;6;10;2;4;5;6;8;2;3;4;3
32;7;7;6;3;5;8;8;5;7;9;2;4;4;6;6;1;3;5
33;16;7;9;5;6;5;7;8;5;7;7;2;4;4;6;6;1;3
34;18;16;7;8;2;5;4;8;9;5;7;8;2;6;4;6;6;1
35;12;17;14;6;9;2;5;4;10;9;5;7;8;2;6;4;6;6
36;8;12;18;10;6;9;2;6;4;10;10;5;7;8;2;7;5;6
37;14;7;11;16;9;8;8;3;5;4;10;10;5;7;6;2;7;6
38;11;14;8;9;16;9;7;7;4;6;4;10;7;6;7;7;2;5
39;10;11;14;6;10;15;9;7;7;5;5;4;9;7;5;8;6;3
40;10;11;10;14;6;11;13;10;7;7;5;4;5;10;6;6;8;6
41;4;11;11;10;13;6;11;14;12;7;7;6;4;5;10;6;6;8
42;5;4;10;9;10;14;7;11;15;13;7;7;6;4;5;10;5;6
43;7;5;4;9;9;10;14;7;10;16;13;7;7;5;3;4;8;3
44;2;8;5;4;9;9;10;14;7;9;16;13;7;7;5;2;4;7
45;5;2;7;4;4;9;10;10;14;8;9;15;13;8;8;5;2;4
46;11;5;2;6;6;4;9;10;10;14;8;8;15;11;8;8;5;2
47;5;11;5;2;7;6;5;9;9;10;14;8;8;15;11;8;8;5
48;8;5;12;3;2;7;9;5;9;9;10;14;8;9;13;11;8;8
49;8;10;5;11;3;2;7;9;5;9;9;12;15;8;9;13;11;8
50;10;8;12;5;10;4;2;7;8;5;9;9;12;15;8;9;13;11
51;4;10;8;9;4;10;5;2;8;7;5;9;9;11;15;8;9;13
52;8;5;9;8;10;4;10;6;2;7;7;5;9;9;11;14;8;9
53;9;8;5;7;8;10;4;10;5;2;7;7;5;9;9;11;15;8
54;6;9;8;4;7;8;10;4;11;5;2;6;7;7;9;9;11;15
55;7;6;9;8;4;9;8;7;4;11;5;2;6;7;7;9;9;12
56;3;7;6;9;8;4;9;8;7;4;11;5;2;8;7;7;9;9
57;11;3;7;6;9;8;4;9;8;7;4;11;5;2;8;8;7;9
58;8;11;3;6;6;9;8;5;8;8;7;4;10;5;2;8;8;7
59;11;7;10;3;6;6;8;8;6;8;8;7;4;10;5;2;8;8
60;9;9;7;10;3;6;6;8;7;5;8;9;7;4;10;6;2;8
61;11;11;9;7;10;3;6;7;8;7;5;8;9;7;4;10;6;3
62;10;11;11;10;6;9;3;6;7;8;6;5;9;9;7;4;10;5
63;6;10;10;11;10;6;8;3;6;7;8;6;5;9;9;7;4;11
64;6;6;10;14;11;10;5;8;3;7;7;8;6;5;9;9;7;5
65;8;6;6;10;14;11;9;5;8;3;7;7;8;6;5;9;8;6
66;7;9;7;6;9;14;12;9;5;8;3;7;7;7;6;5;9;8
67;11;7;9;8;6;10;14;12;11;5;8;4;7;7;7;6;5;9
68;2;12;7;9;7;6;10;14;11;11;5;9;4;7;7;7;6;5
69;12;2;11;7;9;7;6;10;14;11;11;5;10;4;7;7;7;6
70;7;12;2;10;7;9;7;5;10;14;11;12;5;9;3;7;6;7
71;13;7;12;2;10;7;9;7;5;10;13;11;12;4;9;3;7;6
72;6;13;7;12;1;10;7;9;7;5;10;13;11;11;4;9;3;7
73;6;6;13;7;13;1;10;6;9;7;5;11;13;11;11;4;9;3
74;9;6;6;12;6;13;1;10;6;9;7;5;11;13;11;10;4;8
75;6;9;6;6;11;6;13;2;9;6;9;7;5;11;13;11;10;4
76;5;6;9;6;6;11;6;12;2;8;5;9;7;5;11;12;10;10
77;8;5;5;9;7;6;9;6;12;2;8;5;9;6;5;11;11;10
78;5;9;5;5;9;7;6;8;6;12;2;8;5;9;5;5;10;10
79;4;5;6;4;4;7;6;6;8;6;11;2;8;4;9;5;5;10
80;3;6;5;7;4;4;7;6;6;8;5;11;2;8;4;9;4;5
81;6;3;6;5;7;4;4;6;6;6;8;5;11;1;8;4;9;4
82;4;6;3;6;5;7;4;4;6;6;6;8;5;11;1;8;3;9
83;2;5;6;2;5;5;6;4;3;6;6;6;8;5;11;1;7;3
84;6;2;5;6;1;5;4;5;4;2;6;6;6;8;5;10;1;7
85;1;6;2;3;6;1;4;4;5;4;2;6;6;6;7;5;9;1
86;3;1;6;2;2;5;1;4;4;5;4;2;6;6;5;6;5;8
87;1;2;0;6;2;2;4;1;5;4;5;4;2;6;6;5;6;4
88;2;0;2;0;7;1;2;2;1;4;4;4;4;2;5;5;4;6
89;1;2;0;2;0;6;1;2;2;1;3;4;3;4;2;4;5;3
90;7;1;1;0;2;0;6;1;2;1;1;2;4;3;3;2;4;5
91;1;6;0;1;0;1;0;5;1;1;1;1;2;4;3;3;2;4
92;2;1;4;0;0;0;1;0;4;1;0;1;1;1;3;3;2;2
93;1;1;1;4;0;0;0;1;1;4;1;0;1;1;1;1;3;2
94;1;1;0;1;3;0;0;0;1;1;3;1;1;1;0;1;0;2
95;1;0;1;0;0;3;0;0;0;0;1;3;1;1;1;0;0;0
96;0;1;0;1;0;0;1;0;0;0;0;1;1;1;1;1;0;0
97;0;0;1;0;0;0;0;1;0;0;0;0;0;1;1;1;0;0
98;0;0;0;0;0;0;0;0;1;0;0;0;0;0;0;1;1;0
99;0;0;0;0;0;0;0;0;0;0;0;0;0;0;0;0;1;1
100 e oltre;0;0;0;0;0;0;0;0;0;0;0;0;0;0;0;0;0;0
Totale;610;608;608;577;562;567;562;564;564;568;553;558;554;559;545;544;525;514
Età/Anno;2002;2003;2004;2005;2006;2007;2008;2009;2010;2011;2012;2013;2014;2015;2016;2017;2018;2019
Età;Maschi
0;3;1;5;3;2;3;2;4;2;3;0;2;3;2;1;3;1;0
1;1;3;1;6;3;2;3;2;2;2;3;0;2;3;2;1;1;1
2;1;1;3;1;6;3;2;3;2;2;2;3;0;3;3;2;1;2
3;2;1;1;3;1;6;3;2;2;2;1;2;3;0;3;3;2;1
4;4;2;2;1;3;1;6;3;2;2;2;1;2;3;0;3;3;2
5;0;4;2;2;1;3;1;6;4;2;2;2;1;2;4;0;2;3
6;3;0;4;2;2;2;4;2;6;4;2;2;2;1;2;5;0;1
7;5;3;0;4;2;2;2;4;2;6;4;2;2;2;1;2;5;0
8;2;5;4;0;3;2;2;2;4;2;6;4;2;2;2;1;2;5
9;1;2;5;4;0;4;2;2;2;4;1;6;4;2;1;2;1;2
10;1;1;2;5;4;0;4;2;2;2;4;1;6;4;2;1;2;1
11;3;1;1;2;5;4;2;4;2;2;2;4;1;6;4;2;1;2
12;1;3;1;1;2;5;4;1;4;2;2;2;4;1;6;4;2;1
13;3;1;3;1;1;2;5;3;1;4;2;2;2;4;1;6;4;2
14;4;3;1;3;1;1;2;5;3;1;4;2;2;2;4;1;6;4
15;1;4;3;1;3;1;1;2;5;3;1;4;2;2;3;4;1;6
16;2;1;4;3;1;3;1;1;2;5;3;1;4;2;2;3;4;1
17;1;2;1;4;3;1;3;1;1;2;5;3;1;4;2;2;3;4
18;3;1;2;1;4;3;1;3;1;1;2;4;3;1;4;2;2;2
19;4;3;2;2;0;3;3;1;3;1;1;2;4;3;1;4;2;2
20;4;4;3;2;2;0;3;3;1;3;1;1;2;4;3;1;3;2
21;5;4;4;2;2;2;0;3;3;1;3;1;1;2;4;3;1;3
22;3;5;4;4;2;2;1;1;3;3;1;3;1;1;2;4;3;1
23;6;2;6;2;4;2;2;1;1;3;3;1;3;1;1;2;4;3
24;4;6;3;4;1;4;2;2;1;1;3;3;1;3;1;1;2;4
25;1;4;6;3;4;1;4;2;2;1;1;3;3;1;3;1;1;2
26;7;2;4;7;5;4;2;4;2;2;1;1;3;3;1;3;3;1
27;4;6;2;4;7;4;3;2;4;4;2;1;1;3;4;1;2;3
28;5;4;6;3;3;7;3;3;2;4;4;2;1;2;3;4;1;2
29;2;3;3;4;1;4;7;2;3;4;4;4;2;1;2;3;3;1
30;3;2;3;3;5;1;4;7;2;2;3;4;3;2;0;2;3;2
31;6;3;2;3;4;6;1;4;6;1;2;3;4;4;2;0;2;2
32;4;6;3;1;3;4;5;1;4;5;1;2;2;4;3;1;0;2
33;7;4;8;2;4;3;4;5;1;4;5;1;2;2;4;3;1;0
34;8;7;4;8;0;3;3;4;5;1;4;5;1;3;2;4;3;1
35;8;7;6;4;7;0;3;4;6;4;2;4;5;1;3;2;4;3
36;2;8;7;5;3;7;0;5;4;6;4;2;4;5;1;3;2;4
37;8;2;7;6;5;3;6;1;4;4;6;4;2;4;4;1;3;3
38;7;8;3;7;6;5;3;5;2;4;4;6;2;3;4;4;1;1
39;7;7;8;1;7;5;5;3;5;3;3;4;5;2;2;4;4;1
40;5;8;6;8;1;8;4;5;3;5;3;2;4;5;2;3;4;4
41;2;5;8;6;7;1;8;6;6;3;5;3;2;4;5;2;3;4
42;2;2;4;6;6;8;1;7;6;6;3;5;3;2;4;5;1;3
43;4;2;2;4;6;6;8;1;6;7;6;3;5;2;2;3;4;1
44;2;5;2;2;4;6;6;8;1;5;7;6;3;5;2;1;3;4
45;3;2;4;1;2;4;7;6;8;2;5;7;6;4;6;2;1;3
46;5;3;2;3;3;2;4;7;6;8;2;4;7;5;4;6;2;1
47;2;5;3;2;4;3;3;4;6;6;8;2;4;7;5;4;6;2
48;4;2;6;1;2;4;4;3;4;6;6;8;2;5;6;5;4;6
49;5;5;2;6;1;2;4;4;3;4;6;7;9;2;5;6;5;4
50;5;5;5;2;5;2;2;4;4;3;4;6;7;9;2;5;6;5
51;2;5;5;4;2;5;3;2;5;3;3;4;6;7;9;2;5;6
52;4;3;4;5;4;2;5;4;2;4;3;3;4;6;7;8;2;5
53;6;4;3;3;5;4;2;5;3;2;4;3;3;4;6;7;9;2
54;3;6;4;2;3;5;4;2;5;3;2;4;3;4;4;6;7;9
55;3;3;6;4;2;4;5;3;2;5;3;2;4;3;4;4;6;7
56;2;3;3;6;4;2;4;5;3;2;5;3;2;5;3;4;4;6
57;7;2;3;3;6;4;2;4;5;3;2;5;3;2;5;3;4;4
58;5;7;2;3;3;6;4;2;4;5;3;2;5;3;2;5;3;4
59;6;5;6;2;3;3;5;4;3;4;5;3;2;5;3;2;5;3
60;4;4;5;6;2;3;3;5;3;3;4;6;3;2;5;4;2;5
61;4;5;4;5;6;2;3;3;5;3;3;4;6;3;2;5;4;3
62;5;4;5;5;4;6;2;3;3;5;3;3;4;6;3;2;5;3
63;1;5;4;5;5;4;6;2;3;3;5;3;3;4;6;3;2;5
64;4;1;5;6;5;5;3;6;2;3;3;5;3;3;4;6;3;3
65;4;4;1;5;6;5;4;3;6;2;3;3;5;3;3;4;5;3
66;4;4;5;1;4;6;6;4;3;6;2;3;3;5;3;3;4;5
67;6;4;4;5;1;4;6;6;5;3;6;3;3;3;5;3;3;4
68;1;7;4;4;5;1;4;6;6;5;3;6;3;3;3;5;3;3
69;3;1;6;4;4;5;1;4;6;6;5;3;7;3;3;3;5;3
70;3;3;1;5;4;4;5;0;4;6;6;6;3;6;2;3;3;5
71;5;3;3;1;5;4;4;5;0;4;5;6;6;2;6;2;3;3
72;2;5;3;3;0;5;4;4;5;0;4;5;6;5;2;6;2;3
73;4;2;5;3;4;0;5;4;4;5;0;5;5;6;5;2;6;2
74;5;4;2;4;3;4;0;5;4;4;5;0;5;5;6;5;2;5
75;4;5;4;2;4;3;4;1;5;4;4;5;0;5;5;6;5;2
76;2;4;5;4;2;4;3;3;1;5;3;4;5;0;5;4;5;5
77;5;2;3;5;4;2;4;3;3;1;5;3;4;4;0;5;3;5
78;1;6;2;3;5;4;2;3;3;3;1;5;3;4;3;0;4;3
79;2;1;5;1;2;3;4;2;3;3;2;1;5;2;4;3;0;4
80;1;2;1;5;1;2;3;4;2;3;3;2;1;5;2;4;3;0
81;2;1;2;1;5;1;2;3;4;2;3;3;2;0;5;2;4;3
82;2;1;1;2;1;5;1;2;3;4;2;3;3;2;0;5;1;4
83;0;3;1;0;2;1;4;1;1;3;4;2;3;3;2;0;5;1
84;2;0;3;1;0;2;0;3;1;1;3;4;2;3;3;2;0;5
85;0;2;0;2;1;0;2;0;3;1;1;3;4;2;3;3;1;0
86;0;0;2;0;1;1;0;2;0;3;1;1;3;4;2;2;3;0
87;1;0;0;2;0;1;0;0;2;0;3;1;1;3;4;2;2;3
88;1;0;0;0;2;0;1;0;0;2;0;2;1;1;3;4;2;2
89;1;1;0;0;0;1;0;1;0;0;2;0;1;1;1;2;4;1
90;5;1;1;0;0;0;1;0;1;0;0;2;0;1;1;1;2;4
91;0;5;0;1;0;0;0;1;0;0;0;0;2;0;1;1;1;2
92;1;0;3;0;0;0;0;0;0;0;0;0;0;1;0;1;1;1
93;1;1;0;3;0;0;0;0;0;0;0;0;0;0;1;0;1;1
94;1;1;0;0;2;0;0;0;0;0;0;0;0;0;0;1;0;1
95;0;0;1;0;0;2;0;0;0;0;0;0;0;0;0;0;0;0
96;0;0;0;1;0;0;0;0;0;0;0;0;0;0;0;0;0;0
97;0;0;0;0;0;0;0;0;0;0;0;0;0;0;0;0;0;0
98;0;0;0;0;0;0;0;0;0;0;0;0;0;0;0;0;0;0
99;0;0;0;0;0;0;0;0;0;0;0;0;0;0;0;0;0;0
100 e oltre;0;0;0;0;0;0;0;0;0;0;0;0;0;0;0;0;0;0
Totale;310;310;310;292;285;289;286;290;289;291;285;288;287;289;286;285;274;268
Età/Anno;2002;2003;2004;2005;2006;2007;2008;2009;2010;2011;2012;2013;2014;2015;2016;2017;2018;2019
Età;Femmine
0;0;2;1;0;1;2;2;1;0;0;1;1;1;1;2;0;1;0
1;3;0;2;2;0;1;3;2;1;0;0;1;1;1;1;2;0;1
2;2;3;0;2;2;0;1;3;2;2;0;0;2;1;1;1;2;0
3;1;2;3;0;1;2;0;1;3;2;2;0;0;2;1;1;1;2
4;2;1;2;3;0;1;2;0;1;3;2;2;0;0;1;1;1;1
5;5;2;1;2;3;0;1;2;0;1;3;2;2;0;0;1;1;1
6;1;5;2;1;2;3;0;1;2;0;1;3;2;2;0;0;1;1
7;2;0;5;2;1;2;3;0;0;2;0;1;3;2;2;0;0;1
8;3;2;0;5;2;1;3;3;0;2;2;0;1;3;2;2;0;0
9;5;3;2;0;5;2;1;3;3;0;2;2;0;1;3;2;2;0
10;1;5;3;2;0;5;2;1;3;3;0;2;2;0;1;3;2;2
11;2;1;5;2;1;0;5;2;1;3;3;0;2;2;0;1;3;0
12;2;2;1;5;2;1;1;5;2;1;3;3;0;2;3;0;1;3
13;1;1;2;1;5;2;1;1;5;2;1;3;2;0;2;3;0;1
14;1;1;1;2;1;5;3;1;1;5;2;1;4;2;0;2;3;0
15;3;1;1;1;2;1;6;3;1;1;5;2;1;4;2;0;2;3
16;1;3;1;1;1;2;1;6;3;1;1;5;2;1;3;2;0;2
17;1;1;3;1;1;1;2;1;6;3;1;1;5;2;1;3;2;0
18;8;1;1;3;1;1;1;2;1;6;3;1;1;5;2;1;3;3
19;3;6;1;1;3;1;1;1;2;1;5;3;1;1;5;2;1;3
20;4;2;6;1;1;3;1;1;1;2;1;5;2;0;1;5;2;1
21;2;4;2;6;0;1;3;1;1;1;2;1;5;2;0;1;5;2
22;1;2;4;2;6;0;1;3;1;1;0;2;1;5;2;0;1;5
23;5;1;2;4;2;6;0;1;3;1;1;0;2;1;5;3;0;2
24;2;5;1;2;4;2;6;0;1;3;1;1;0;3;1;5;3;0
25;6;4;5;1;2;4;2;6;0;2;3;1;1;0;2;1;4;3
26;4;6;4;5;1;2;2;2;4;0;2;3;1;1;1;2;1;3
27;4;3;5;3;4;1;2;2;2;4;0;2;2;1;1;1;2;1
28;3;3;3;4;2;4;1;2;2;3;4;0;2;2;1;1;1;2
29;2;2;3;4;4;2;4;1;3;2;3;4;0;3;2;1;1;1
30;3;2;3;5;3;4;1;5;1;3;2;3;4;0;3;2;1;1
31;1;3;4;3;5;3;4;2;4;1;2;2;2;4;0;3;2;1
32;3;1;3;2;2;4;3;4;3;4;1;2;2;2;3;0;3;3
33;9;3;1;3;2;2;3;3;4;3;2;1;2;2;2;3;0;3
34;10;9;3;0;2;2;1;4;4;4;3;3;1;3;2;2;3;0
35;4;10;8;2;2;2;2;0;4;5;3;3;3;1;3;2;2;3
36;6;4;11;5;3;2;2;1;0;4;6;3;3;3;1;4;3;2
37;6;5;4;10;4;5;2;2;1;0;4;6;3;3;2;1;4;3
38;4;6;5;2;10;4;4;2;2;2;0;4;5;3;3;3;1;4
39;3;4;6;5;3;10;4;4;2;2;2;0;4;5;3;4;2;2
40;5;3;4;6;5;3;9;5;4;2;2;2;1;5;4;3;4;2
41;2;6;3;4;6;5;3;8;6;4;2;3;2;1;5;4;3;4
42;3;2;6;3;4;6;6;4;9;7;4;2;3;2;1;5;4;3
43;3;3;2;5;3;4;6;6;4;9;7;4;2;3;1;1;4;2
44;0;3;3;2;5;3;4;6;6;4;9;7;4;2;3;1;1;3
45;2;0;3;3;2;5;3;4;6;6;4;8;7;4;2;3;1;1
46;6;2;0;3;3;2;5;3;4;6;6;4;8;6;4;2;3;1
47;3;6;2;0;3;3;2;5;3;4;6;6;4;8;6;4;2;3
48;4;3;6;2;0;3;5;2;5;3;4;6;6;4;7;6;4;2
49;3;5;3;5;2;0;3;5;2;5;3;5;6;6;4;7;6;4
50;5;3;7;3;5;2;0;3;4;2;5;3;5;6;6;4;7;6
51;2;5;3;5;2;5;2;0;3;4;2;5;3;4;6;6;4;7
52;4;2;5;3;6;2;5;2;0;3;4;2;5;3;4;6;6;4
53;3;4;2;4;3;6;2;5;2;0;3;4;2;5;3;4;6;6
54;3;3;4;2;4;3;6;2;6;2;0;2;4;3;5;3;4;6
55;4;3;3;4;2;5;3;4;2;6;2;0;2;4;3;5;3;5
56;1;4;3;3;4;2;5;3;4;2;6;2;0;3;4;3;5;3
57;4;1;4;3;3;4;2;5;3;4;2;6;2;0;3;5;3;5
58;3;4;1;3;3;3;4;3;4;3;4;2;5;2;0;3;5;3
59;5;2;4;1;3;3;3;4;3;4;3;4;2;5;2;0;3;5
60;5;5;2;4;1;3;3;3;4;2;4;3;4;2;5;2;0;3
61;7;6;5;2;4;1;3;4;3;4;2;4;3;4;2;5;2;0
62;5;7;6;5;2;3;1;3;4;3;3;2;5;3;4;2;5;2
63;5;5;6;6;5;2;2;1;3;4;3;3;2;5;3;4;2;6
64;2;5;5;8;6;5;2;2;1;4;4;3;3;2;5;3;4;2
65;4;2;5;5;8;6;5;2;2;1;4;4;3;3;2;5;3;3
66;3;5;2;5;5;8;6;5;2;2;1;4;4;2;3;2;5;3
67;5;3;5;3;5;6;8;6;6;2;2;1;4;4;2;3;2;5
68;1;5;3;5;2;5;6;8;5;6;2;3;1;4;4;2;3;2
69;9;1;5;3;5;2;5;6;8;5;6;2;3;1;4;4;2;3
70;4;9;1;5;3;5;2;5;6;8;5;6;2;3;1;4;3;2
71;8;4;9;1;5;3;5;2;5;6;8;5;6;2;3;1;4;3
72;4;8;4;9;1;5;3;5;2;5;6;8;5;6;2;3;1;4
73;2;4;8;4;9;1;5;2;5;2;5;6;8;5;6;2;3;1
74;4;2;4;8;3;9;1;5;2;5;2;5;6;8;5;5;2;3
75;2;4;2;4;7;3;9;1;4;2;5;2;5;6;8;5;5;2
76;3;2;4;2;4;7;3;9;1;3;2;5;2;5;6;8;5;5
77;3;3;2;4;3;4;5;3;9;1;3;2;5;2;5;6;8;5
78;4;3;3;2;4;3;4;5;3;9;1;3;2;5;2;5;6;7
79;2;4;1;3;2;4;2;4;5;3;9;1;3;2;5;2;5;6
80;2;4;4;2;3;2;4;2;4;5;2;9;1;3;2;5;1;5
81;4;2;4;4;2;3;2;3;2;4;5;2;9;1;3;2;5;1
82;2;5;2;4;4;2;3;2;3;2;4;5;2;9;1;3;2;5
83;2;2;5;2;3;4;2;3;2;3;2;4;5;2;9;1;2;2
84;4;2;2;5;1;3;4;2;3;1;3;2;4;5;2;8;1;2
85;1;4;2;1;5;1;2;4;2;3;1;3;2;4;4;2;8;1
86;3;1;4;2;1;4;1;2;4;2;3;1;3;2;3;4;2;8
87;0;2;0;4;2;1;4;1;3;4;2;3;1;3;2;3;4;1
88;1;0;2;0;5;1;1;2;1;2;4;2;3;1;2;1;2;4
89;0;1;0;2;0;5;1;1;2;1;1;4;2;3;1;2;1;2
90;2;0;0;0;2;0;5;1;1;1;1;0;4;2;2;1;2;1
91;1;1;0;0;0;1;0;4;1;1;1;1;0;4;2;2;1;2
92;1;1;1;0;0;0;1;0;4;1;0;1;1;0;3;2;1;1
93;0;0;1;1;0;0;0;1;1;4;1;0;1;1;0;1;2;1
94;0;0;0;1;1;0;0;0;1;1;3;1;1;1;0;0;0;1
95;1;0;0;0;0;1;0;0;0;0;1;3;1;1;1;0;0;0
96;0;1;0;0;0;0;1;0;0;0;0;1;1;1;1;1;0;0
97;0;0;1;0;0;0;0;1;0;0;0;0;0;1;1;1;0;0
98;0;0;0;0;0;0;0;0;1;0;0;0;0;0;0;1;1;0
99;0;0;0;0;0;0;0;0;0;0;0;0;0;0;0;0;1;1
100 e oltre;0;0;0;0;0;0;0;0;0;0;0;0;0;0;0;0;0;0
Totale;300;298;298;285;277;278;276;274;275;277;268;270;267;270;259;259;251;246

"Ricostruzione della popolazione intercensuaria - Popolazione al 1° gennaio per età"
"Cittadinanza italiana - Comune: Ussaramanna"
Età/Anno;2002;2003;2004;2005;2006;2007;2008;2009;2010;2011;2012;2013;2014;2015;2016;2017;2018;2019
Età;Totale
0;3;3;6;3;3;5;4;5;2;3;1;3;4;3;3;3;2;0
1;4;3;3;8;3;3;6;4;3;2;3;1;3;4;3;3;1;2
2;3;4;3;3;8;3;3;6;4;4;2;3;2;4;4;3;3;2
3;3;3;4;3;2;8;3;3;5;4;3;2;3;2;4;4;3;3
4;6;3;4;4;3;2;8;3;3;5;4;3;2;3;1;4;4;3
5;5;6;3;4;4;3;2;8;4;3;5;4;3;2;4;1;3;4
6;4;5;6;3;4;5;4;3;8;4;3;5;4;3;2;5;1;2
7;7;3;5;6;3;4;5;4;2;8;4;3;5;4;3;2;5;1
8;5;7;4;5;5;3;5;5;4;4;8;4;3;5;4;3;2;5
9;6;5;7;4;5;6;3;5;5;4;3;8;4;3;4;4;3;2
10;2;6;5;7;4;5;6;3;5;5;4;3;8;4;3;4;4;3
11;5;2;6;4;6;4;7;6;3;5;5;4;3;8;4;3;4;2
12;3;5;2;6;4;6;5;6;6;3;5;5;4;3;9;4;3;4
13;4;2;5;2;6;4;6;4;6;6;3;5;4;4;3;9;4;3
14;5;4;2;5;2;6;5;6;4;6;6;3;6;4;4;3;9;4
15;4;5;4;2;5;2;7;5;6;4;6;6;3;6;5;4;3;9
16;3;4;5;4;2;5;2;7;5;6;4;6;6;3;5;5;4;3
17;2;3;4;5;4;2;5;2;7;5;6;4;6;6;3;5;5;4
18;11;2;3;4;5;4;2;5;2;7;5;5;4;6;6;3;5;5
19;7;9;3;3;3;4;4;2;5;2;6;5;5;4;6;6;3;5
20;8;6;9;3;3;3;4;4;2;5;2;6;4;4;4;6;5;3
21;7;8;6;8;2;3;3;4;4;2;5;2;6;4;4;4;6;5
22;4;7;8;6;8;2;2;4;4;4;1;5;2;6;4;4;4;6
23;11;3;8;6;6;8;2;2;4;4;4;1;5;2;6;5;4;5
24;6;11;4;6;5;6;8;2;2;4;4;4;1;6;2;6;5;4
25;7;8;11;4;6;5;6;8;2;3;4;4;4;1;5;2;5;5
26;11;8;8;12;6;6;4;6;6;2;3;4;4;4;2;5;4;4
27;8;9;7;7;11;5;5;4;6;8;2;3;3;4;5;2;4;4
28;8;7;9;7;5;11;4;5;4;7;8;2;3;4;4;5;2;4
29;4;5;6;8;5;6;11;3;5;6;7;8;2;4;4;4;4;2
30;6;4;6;8;8;5;5;12;3;4;5;7;7;2;3;4;4;3
31;7;6;6;6;9;9;5;6;10;2;4;5;6;8;2;3;4;3
32;7;7;6;3;5;8;8;5;7;9;2;4;4;6;6;1;3;5
33;16;7;9;5;5;5;7;8;5;7;7;2;4;4;6;6;1;3
34;18;16;7;8;2;5;4;8;9;5;7;8;2;6;4;6;6;1
35;12;17;14;6;9;2;5;4;10;8;5;7;8;2;6;4;6;6
36;8;12;18;10;6;9;2;6;4;10;8;5;7;8;2;7;5;6
37;14;7;11;16;9;8;8;3;5;4;10;8;5;7;6;2;7;6
38;11;14;8;9;16;9;7;7;4;6;4;10;5;6;7;7;2;5
39;10;11;14;6;10;15;9;7;7;5;5;4;9;5;5;8;6;3
40;10;11;10;14;6;11;13;10;7;7;5;4;5;10;6;6;8;6
41;4;11;11;10;13;6;11;14;12;7;7;5;4;5;10;6;6;8
42;5;4;10;9;10;14;7;11;15;13;7;7;5;4;5;10;5;6
43;7;5;4;9;9;10;14;7;10;16;13;7;7;4;3;4;8;3
44;2;8;5;4;9;9;10;14;7;9;16;13;7;7;4;2;4;7
45;5;2;7;4;4;9;10;10;14;8;9;15;13;8;8;4;2;4
46;11;5;2;6;5;4;9;10;10;14;8;8;15;11;8;8;5;2
47;5;11;5;2;6;5;5;9;9;10;14;8;8;15;11;8;8;5
48;7;5;12;3;2;6;8;5;9;9;10;14;8;9;13;11;8;8
49;8;9;5;11;3;2;6;8;5;9;9;12;15;8;9;13;11;8
50;10;8;11;5;10;4;2;6;8;5;9;9;12;15;8;9;13;11
51;4;10;8;8;4;10;5;2;7;7;5;9;9;11;15;8;9;13
52;8;5;9;8;9;4;10;6;2;7;7;5;9;9;11;14;8;9
53;9;8;5;7;8;9;4;10;5;2;7;7;5;9;9;11;15;8
54;6;9;8;4;7;8;9;4;11;5;2;6;7;7;9;9;11;15
55;7;6;9;8;4;9;8;7;4;11;5;2;6;7;7;9;9;12
56;3;7;6;9;8;4;9;8;7;4;11;5;2;7;7;7;9;9
57;10;3;7;6;9;8;4;9;8;7;4;11;5;2;7;8;7;9
58;8;11;3;6;6;9;8;4;8;8;7;4;10;5;2;7;8;7
59;11;7;10;3;6;6;8;8;5;8;8;7;4;10;5;2;8;8
60;9;9;7;10;3;6;6;8;7;5;8;9;7;4;10;6;2;8
61;11;11;9;7;10;3;6;7;8;7;5;8;9;7;4;10;6;3
62;10;11;11;10;6;9;3;6;7;8;6;5;9;9;7;4;10;5
63;6;10;10;11;10;6;8;3;6;7;8;6;5;9;9;7;4;11
64;6;6;10;14;11;10;5;8;3;7;7;8;6;5;9;9;7;5
65;8;6;6;10;14;11;9;5;8;3;7;7;8;6;5;9;8;6
66;7;9;7;6;9;14;12;9;5;8;3;7;7;7;6;5;9;8
67;11;7;9;8;6;10;14;12;11;5;8;4;7;7;7;6;5;9
68;2;12;7;9;7;6;10;14;11;11;5;9;4;7;7;7;6;5
69;12;2;11;7;9;7;6;10;14;11;11;5;10;4;7;7;7;6
70;7;12;2;10;7;9;7;5;10;14;11;12;5;9;3;7;6;7
71;13;7;12;2;10;7;9;7;5;10;13;11;12;4;9;3;7;6
72;6;13;7;12;1;10;7;9;7;5;10;13;11;11;4;9;3;7
73;6;6;13;7;13;1;10;6;9;7;5;11;13;11;11;4;9;3
74;9;6;6;12;6;13;1;10;6;9;7;5;11;13;11;10;4;8
75;6;9;6;6;11;6;13;2;9;6;9;7;5;11;13;11;10;4
76;5;6;9;6;6;11;6;12;2;8;5;9;7;5;11;12;10;10
77;8;5;5;9;7;6;9;6;12;2;8;5;9;6;5;11;11;10
78;5;9;5;5;9;7;6;8;6;12;2;8;5;9;5;5;10;10
79;4;5;6;4;4;7;6;6;8;6;11;2;8;4;9;5;5;10
80;3;6;5;7;4;4;7;6;6;8;5;11;2;8;4;9;4;5
81;6;3;6;5;7;4;4;6;6;6;8;5;11;1;8;4;9;4
82;4;6;3;6;5;7;4;4;6;6;6;8;5;11;1;8;3;9
83;2;5;6;2;5;5;6;4;3;6;6;6;8;5;11;1;7;3
84;6;2;5;6;1;5;4;5;4;2;6;6;6;8;5;10;1;7
85;1;6;2;3;6;1;4;4;5;4;2;6;6;6;7;5;9;1
86;3;1;6;2;2;5;1;4;4;5;4;2;6;6;5;6;5;8
87;1;2;0;6;2;2;4;1;5;4;5;4;2;6;6;5;6;4
88;2;0;2;0;7;1;2;2;1;4;4;4;4;2;5;5;4;6
89;1;2;0;2;0;6;1;2;2;1;3;4;3;4;2;4;5;3
90;7;1;1;0;2;0;6;1;2;1;1;2;4;3;3;2;4;5
91;1;6;0;1;0;1;0;5;1;1;1;1;2;4;3;3;2;4
92;2;1;4;0;0;0;1;0;4;1;0;1;1;1;3;3;2;2
93;1;1;1;4;0;0;0;1;1;4;1;0;1;1;1;1;3;2
94;1;1;0;1;3;0;0;0;1;1;3;1;1;1;0;1;0;2
95;1;0;1;0;0;3;0;0;0;0;1;3;1;1;1;0;0;0
96;0;1;0;1;0;0;1;0;0;0;0;1;1;1;1;1;0;0
97;0;0;1;0;0;0;0;1;0;0;0;0;0;1;1;1;0;0
98;0;0;0;0;0;0;0;0;1;0;0;0;0;0;0;1;1;0
99;0;0;0;0;0;0;0;0;0;0;0;0;0;0;0;0;1;1
100 e oltre;0;0;0;0;0;0;0;0;0;0;0;0;0;0;0;0;0;0
Totale;608;607;607;576;558;564;559;561;561;566;551;555;551;555;543;542;525;514
Età/Anno;2002;2003;2004;2005;2006;2007;2008;2009;2010;2011;2012;2013;2014;2015;2016;2017;2018;2019
Età;Maschi
0;3;1;5;3;2;3;2;4;2;3;0;2;3;2;1;3;1;0
1;1;3;1;6;3;2;3;2;2;2;3;0;2;3;2;1;1;1
2;1;1;3;1;6;3;2;3;2;2;2;3;0;3;3;2;1;2
3;2;1;1;3;1;6;3;2;2;2;1;2;3;0;3;3;2;1
4;4;2;2;1;3;1;6;3;2;2;2;1;2;3;0;3;3;2
5;0;4;2;2;1;3;1;6;4;2;2;2;1;2;4;0;2;3
6;3;0;4;2;2;2;4;2;6;4;2;2;2;1;2;5;0;1
7;5;3;0;4;2;2;2;4;2;6;4;2;2;2;1;2;5;0
8;2;5;4;0;3;2;2;2;4;2;6;4;2;2;2;1;2;5
9;1;2;5;4;0;4;2;2;2;4;1;6;4;2;1;2;1;2
10;1;1;2;5;4;0;4;2;2;2;4;1;6;4;2;1;2;1
11;3;1;1;2;5;4;2;4;2;2;2;4;1;6;4;2;1;2
12;1;3;1;1;2;5;4;1;4;2;2;2;4;1;6;4;2;1
13;3;1;3;1;1;2;5;3;1;4;2;2;2;4;1;6;4;2
14;4;3;1;3;1;1;2;5;3;1;4;2;2;2;4;1;6;4
15;1;4;3;1;3;1;1;2;5;3;1;4;2;2;3;4;1;6
16;2;1;4;3;1;3;1;1;2;5;3;1;4;2;2;3;4;1
17;1;2;1;4;3;1;3;1;1;2;5;3;1;4;2;2;3;4
18;3;1;2;1;4;3;1;3;1;1;2;4;3;1;4;2;2;2
19;4;3;2;2;0;3;3;1;3;1;1;2;4;3;1;4;2;2
20;4;4;3;2;2;0;3;3;1;3;1;1;2;4;3;1;3;2
21;5;4;4;2;2;2;0;3;3;1;3;1;1;2;4;3;1;3
22;3;5;4;4;2;2;1;1;3;3;1;3;1;1;2;4;3;1
23;6;2;6;2;4;2;2;1;1;3;3;1;3;1;1;2;4;3
24;4;6;3;4;1;4;2;2;1;1;3;3;1;3;1;1;2;4
25;1;4;6;3;4;1;4;2;2;1;1;3;3;1;3;1;1;2
26;7;2;4;7;5;4;2;4;2;2;1;1;3;3;1;3;3;1
27;4;6;2;4;7;4;3;2;4;4;2;1;1;3;4;1;2;3
28;5;4;6;3;3;7;3;3;2;4;4;2;1;2;3;4;1;2
29;2;3;3;4;1;4;7;2;3;4;4;4;2;1;2;3;3;1
30;3;2;3;3;5;1;4;7;2;2;3;4;3;2;0;2;3;2
31;6;3;2;3;4;6;1;4;6;1;2;3;4;4;2;0;2;2
32;4;6;3;1;3;4;5;1;4;5;1;2;2;4;3;1;0;2
33;7;4;8;2;3;3;4;5;1;4;5;1;2;2;4;3;1;0
34;8;7;4;8;0;3;3;4;5;1;4;5;1;3;2;4;3;1
35;8;7;6;4;7;0;3;4;6;4;2;4;5;1;3;2;4;3
36;2;8;7;5;3;7;0;5;4;6;4;2;4;5;1;3;2;4
37;8;2;7;6;5;3;6;1;4;4;6;4;2;4;4;1;3;3
38;7;8;3;7;6;5;3;5;2;4;4;6;2;3;4;4;1;1
39;7;7;8;1;7;5;5;3;5;3;3;4;5;2;2;4;4;1
40;5;8;6;8;1;8;4;5;3;5;3;2;4;5;2;3;4;4
41;2;5;8;6;7;1;8;6;6;3;5;3;2;4;5;2;3;4
42;2;2;4;6;6;8;1;7;6;6;3;5;3;2;4;5;1;3
43;4;2;2;4;6;6;8;1;6;7;6;3;5;2;2;3;4;1
44;2;5;2;2;4;6;6;8;1;5;7;6;3;5;2;1;3;4
45;3;2;4;1;2;4;7;6;8;2;5;7;6;4;6;2;1;3
46;5;3;2;3;2;2;4;7;6;8;2;4;7;5;4;6;2;1
47;2;5;3;2;3;2;3;4;6;6;8;2;4;7;5;4;6;2
48;4;2;6;1;2;3;3;3;4;6;6;8;2;5;6;5;4;6
49;5;5;2;6;1;2;3;3;3;4;6;7;9;2;5;6;5;4
50;5;5;5;2;5;2;2;3;4;3;4;6;7;9;2;5;6;5
51;2;5;5;4;2;5;3;2;4;3;3;4;6;7;9;2;5;6
52;4;3;4;5;4;2;5;4;2;4;3;3;4;6;7;8;2;5
53;6;4;3;3;5;4;2;5;3;2;4;3;3;4;6;7;9;2
54;3;6;4;2;3;5;4;2;5;3;2;4;3;4;4;6;7;9
55;3;3;6;4;2;4;5;3;2;5;3;2;4;3;4;4;6;7
56;2;3;3;6;4;2;4;5;3;2;5;3;2;4;3;4;4;6
57;7;2;3;3;6;4;2;4;5;3;2;5;3;2;4;3;4;4
58;5;7;2;3;3;6;4;2;4;5;3;2;5;3;2;4;3;4
59;6;5;6;2;3;3;5;4;3;4;5;3;2;5;3;2;5;3
60;4;4;5;6;2;3;3;5;3;3;4;6;3;2;5;4;2;5
61;4;5;4;5;6;2;3;3;5;3;3;4;6;3;2;5;4;3
62;5;4;5;5;4;6;2;3;3;5;3;3;4;6;3;2;5;3
63;1;5;4;5;5;4;6;2;3;3;5;3;3;4;6;3;2;5
64;4;1;5;6;5;5;3;6;2;3;3;5;3;3;4;6;3;3
65;4;4;1;5;6;5;4;3;6;2;3;3;5;3;3;4;5;3
66;4;4;5;1;4;6;6;4;3;6;2;3;3;5;3;3;4;5
67;6;4;4;5;1;4;6;6;5;3;6;3;3;3;5;3;3;4
68;1;7;4;4;5;1;4;6;6;5;3;6;3;3;3;5;3;3
69;3;1;6;4;4;5;1;4;6;6;5;3;7;3;3;3;5;3
70;3;3;1;5;4;4;5;0;4;6;6;6;3;6;2;3;3;5
71;5;3;3;1;5;4;4;5;0;4;5;6;6;2;6;2;3;3
72;2;5;3;3;0;5;4;4;5;0;4;5;6;5;2;6;2;3
73;4;2;5;3;4;0;5;4;4;5;0;5;5;6;5;2;6;2
74;5;4;2;4;3;4;0;5;4;4;5;0;5;5;6;5;2;5
75;4;5;4;2;4;3;4;1;5;4;4;5;0;5;5;6;5;2
76;2;4;5;4;2;4;3;3;1;5;3;4;5;0;5;4;5;5
77;5;2;3;5;4;2;4;3;3;1;5;3;4;4;0;5;3;5
78;1;6;2;3;5;4;2;3;3;3;1;5;3;4;3;0;4;3
79;2;1;5;1;2;3;4;2;3;3;2;1;5;2;4;3;0;4
80;1;2;1;5;1;2;3;4;2;3;3;2;1;5;2;4;3;0
81;2;1;2;1;5;1;2;3;4;2;3;3;2;0;5;2;4;3
82;2;1;1;2;1;5;1;2;3;4;2;3;3;2;0;5;1;4
83;0;3;1;0;2;1;4;1;1;3;4;2;3;3;2;0;5;1
84;2;0;3;1;0;2;0;3;1;1;3;4;2;3;3;2;0;5
85;0;2;0;2;1;0;2;0;3;1;1;3;4;2;3;3;1;0
86;0;0;2;0;1;1;0;2;0;3;1;1;3;4;2;2;3;0
87;1;0;0;2;0;1;0;0;2;0;3;1;1;3;4;2;2;3
88;1;0;0;0;2;0;1;0;0;2;0;2;1;1;3;4;2;2
89;1;1;0;0;0;1;0;1;0;0;2;0;1;1;1;2;4;1
90;5;1;1;0;0;0;1;0;1;0;0;2;0;1;1;1;2;4
91;0;5;0;1;0;0;0;1;0;0;0;0;2;0;1;1;1;2
92;1;0;3;0;0;0;0;0;0;0;0;0;0;1;0;1;1;1
93;1;1;0;3;0;0;0;0;0;0;0;0;0;0;1;0;1;1
94;1;1;0;0;2;0;0;0;0;0;0;0;0;0;0;1;0;1
95;0;0;1;0;0;2;0;0;0;0;0;0;0;0;0;0;0;0
96;0;0;0;1;0;0;0;0;0;0;0;0;0;0;0;0;0;0
97;0;0;0;0;0;0;0;0;0;0;0;0;0;0;0;0;0;0
98;0;0;0;0;0;0;0;0;0;0;0;0;0;0;0;0;0;0
99;0;0;0;0;0;0;0;0;0;0;0;0;0;0;0;0;0;0
100 e oltre;0;0;0;0;0;0;0;0;0;0;0;0;0;0;0;0;0;0
Totale;310;310;310;292;282;287;284;288;288;291;285;288;287;288;285;284;274;268
Età/Anno;2002;2003;2004;2005;2006;2007;2008;2009;2010;2011;2012;2013;2014;2015;2016;2017;2018;2019
Età;Femmine
0;0;2;1;0;1;2;2;1;0;0;1;1;1;1;2;0;1;0
1;3;0;2;2;0;1;3;2;1;0;0;1;1;1;1;2;0;1
2;2;3;0;2;2;0;1;3;2;2;0;0;2;1;1;1;2;0
3;1;2;3;0;1;2;0;1;3;2;2;0;0;2;1;1;1;2
4;2;1;2;3;0;1;2;0;1;3;2;2;0;0;1;1;1;1
5;5;2;1;2;3;0;1;2;0;1;3;2;2;0;0;1;1;1
6;1;5;2;1;2;3;0;1;2;0;1;3;2;2;0;0;1;1
7;2;0;5;2;1;2;3;0;0;2;0;1;3;2;2;0;0;1
8;3;2;0;5;2;1;3;3;0;2;2;0;1;3;2;2;0;0
9;5;3;2;0;5;2;1;3;3;0;2;2;0;1;3;2;2;0
10;1;5;3;2;0;5;2;1;3;3;0;2;2;0;1;3;2;2
11;2;1;5;2;1;0;5;2;1;3;3;0;2;2;0;1;3;0
12;2;2;1;5;2;1;1;5;2;1;3;3;0;2;3;0;1;3
13;1;1;2;1;5;2;1;1;5;2;1;3;2;0;2;3;0;1
14;1;1;1;2;1;5;3;1;1;5;2;1;4;2;0;2;3;0
15;3;1;1;1;2;1;6;3;1;1;5;2;1;4;2;0;2;3
16;1;3;1;1;1;2;1;6;3;1;1;5;2;1;3;2;0;2
17;1;1;3;1;1;1;2;1;6;3;1;1;5;2;1;3;2;0
18;8;1;1;3;1;1;1;2;1;6;3;1;1;5;2;1;3;3
19;3;6;1;1;3;1;1;1;2;1;5;3;1;1;5;2;1;3
20;4;2;6;1;1;3;1;1;1;2;1;5;2;0;1;5;2;1
21;2;4;2;6;0;1;3;1;1;1;2;1;5;2;0;1;5;2
22;1;2;4;2;6;0;1;3;1;1;0;2;1;5;2;0;1;5
23;5;1;2;4;2;6;0;1;3;1;1;0;2;1;5;3;0;2
24;2;5;1;2;4;2;6;0;1;3;1;1;0;3;1;5;3;0
25;6;4;5;1;2;4;2;6;0;2;3;1;1;0;2;1;4;3
26;4;6;4;5;1;2;2;2;4;0;2;3;1;1;1;2;1;3
27;4;3;5;3;4;1;2;2;2;4;0;2;2;1;1;1;2;1
28;3;3;3;4;2;4;1;2;2;3;4;0;2;2;1;1;1;2
29;2;2;3;4;4;2;4;1;2;2;3;4;0;3;2;1;1;1
30;3;2;3;5;3;4;1;5;1;2;2;3;4;0;3;2;1;1
31;1;3;4;3;5;3;4;2;4;1;2;2;2;4;0;3;2;1
32;3;1;3;2;2;4;3;4;3;4;1;2;2;2;3;0;3;3
33;9;3;1;3;2;2;3;3;4;3;2;1;2;2;2;3;0;3
34;10;9;3;0;2;2;1;4;4;4;3;3;1;3;2;2;3;0
35;4;10;8;2;2;2;2;0;4;4;3;3;3;1;3;2;2;3
36;6;4;11;5;3;2;2;1;0;4;4;3;3;3;1;4;3;2
37;6;5;4;10;4;5;2;2;1;0;4;4;3;3;2;1;4;3
38;4;6;5;2;10;4;4;2;2;2;0;4;3;3;3;3;1;4
39;3;4;6;5;3;10;4;4;2;2;2;0;4;3;3;4;2;2
40;5;3;4;6;5;3;9;5;4;2;2;2;1;5;4;3;4;2
41;2;6;3;4;6;5;3;8;6;4;2;2;2;1;5;4;3;4
42;3;2;6;3;4;6;6;4;9;7;4;2;2;2;1;5;4;3
43;3;3;2;5;3;4;6;6;4;9;7;4;2;2;1;1;4;2
44;0;3;3;2;5;3;4;6;6;4;9;7;4;2;2;1;1;3
45;2;0;3;3;2;5;3;4;6;6;4;8;7;4;2;2;1;1
46;6;2;0;3;3;2;5;3;4;6;6;4;8;6;4;2;3;1
47;3;6;2;0;3;3;2;5;3;4;6;6;4;8;6;4;2;3
48;3;3;6;2;0;3;5;2;5;3;4;6;6;4;7;6;4;2
49;3;4;3;5;2;0;3;5;2;5;3;5;6;6;4;7;6;4
50;5;3;6;3;5;2;0;3;4;2;5;3;5;6;6;4;7;6
51;2;5;3;4;2;5;2;0;3;4;2;5;3;4;6;6;4;7
52;4;2;5;3;5;2;5;2;0;3;4;2;5;3;4;6;6;4
53;3;4;2;4;3;5;2;5;2;0;3;4;2;5;3;4;6;6
54;3;3;4;2;4;3;5;2;6;2;0;2;4;3;5;3;4;6
55;4;3;3;4;2;5;3;4;2;6;2;0;2;4;3;5;3;5
56;1;4;3;3;4;2;5;3;4;2;6;2;0;3;4;3;5;3
57;3;1;4;3;3;4;2;5;3;4;2;6;2;0;3;5;3;5
58;3;4;1;3;3;3;4;2;4;3;4;2;5;2;0;3;5;3
59;5;2;4;1;3;3;3;4;2;4;3;4;2;5;2;0;3;5
60;5;5;2;4;1;3;3;3;4;2;4;3;4;2;5;2;0;3
61;7;6;5;2;4;1;3;4;3;4;2;4;3;4;2;5;2;0
62;5;7;6;5;2;3;1;3;4;3;3;2;5;3;4;2;5;2
63;5;5;6;6;5;2;2;1;3;4;3;3;2;5;3;4;2;6
64;2;5;5;8;6;5;2;2;1;4;4;3;3;2;5;3;4;2
65;4;2;5;5;8;6;5;2;2;1;4;4;3;3;2;5;3;3
66;3;5;2;5;5;8;6;5;2;2;1;4;4;2;3;2;5;3
67;5;3;5;3;5;6;8;6;6;2;2;1;4;4;2;3;2;5
68;1;5;3;5;2;5;6;8;5;6;2;3;1;4;4;2;3;2
69;9;1;5;3;5;2;5;6;8;5;6;2;3;1;4;4;2;3
70;4;9;1;5;3;5;2;5;6;8;5;6;2;3;1;4;3;2
71;8;4;9;1;5;3;5;2;5;6;8;5;6;2;3;1;4;3
72;4;8;4;9;1;5;3;5;2;5;6;8;5;6;2;3;1;4
73;2;4;8;4;9;1;5;2;5;2;5;6;8;5;6;2;3;1
74;4;2;4;8;3;9;1;5;2;5;2;5;6;8;5;5;2;3
75;2;4;2;4;7;3;9;1;4;2;5;2;5;6;8;5;5;2
76;3;2;4;2;4;7;3;9;1;3;2;5;2;5;6;8;5;5
77;3;3;2;4;3;4;5;3;9;1;3;2;5;2;5;6;8;5
78;4;3;3;2;4;3;4;5;3;9;1;3;2;5;2;5;6;7
79;2;4;1;3;2;4;2;4;5;3;9;1;3;2;5;2;5;6
80;2;4;4;2;3;2;4;2;4;5;2;9;1;3;2;5;1;5
81;4;2;4;4;2;3;2;3;2;4;5;2;9;1;3;2;5;1
82;2;5;2;4;4;2;3;2;3;2;4;5;2;9;1;3;2;5
83;2;2;5;2;3;4;2;3;2;3;2;4;5;2;9;1;2;2
84;4;2;2;5;1;3;4;2;3;1;3;2;4;5;2;8;1;2
85;1;4;2;1;5;1;2;4;2;3;1;3;2;4;4;2;8;1
86;3;1;4;2;1;4;1;2;4;2;3;1;3;2;3;4;2;8
87;0;2;0;4;2;1;4;1;3;4;2;3;1;3;2;3;4;1
88;1;0;2;0;5;1;1;2;1;2;4;2;3;1;2;1;2;4
89;0;1;0;2;0;5;1;1;2;1;1;4;2;3;1;2;1;2
90;2;0;0;0;2;0;5;1;1;1;1;0;4;2;2;1;2;1
91;1;1;0;0;0;1;0;4;1;1;1;1;0;4;2;2;1;2
92;1;1;1;0;0;0;1;0;4;1;0;1;1;0;3;2;1;1
93;0;0;1;1;0;0;0;1;1;4;1;0;1;1;0;1;2;1
94;0;0;0;1;1;0;0;0;1;1;3;1;1;1;0;0;0;1
95;1;0;0;0;0;1;0;0;0;0;1;3;1;1;1;0;0;0
96;0;1;0;0;0;0;1;0;0;0;0;1;1;1;1;1;0;0
97;0;0;1;0;0;0;0;1;0;0;0;0;0;1;1;1;0;0
98;0;0;0;0;0;0;0;0;1;0;0;0;0;0;0;1;1;0
99;0;0;0;0;0;0;0;0;0;0;0;0;0;0;0;0;1;1
100 e oltre;0;0;0;0;0;0;0;0;0;0;0;0;0;0;0;0;0;0
Totale;298;297;297;284;276;277;275;273;273;275;266;267;264;267;258;258;251;246

"Ricostruzione della popolazione intercensuaria - Popolazione al 1° gennaio per età"
"Cittadinanza straniera - Comune: Ussaramanna"
Età/Anno;2002;2003;2004;2005;2006;2007;2008;2009;2010;2011;2012;2013;2014;2015;2016;2017;2018;2019
Età;Totale
0;0;0;0;0;0;0;0;0;0;0;0;0;0;0;0;0;0;0
1;0;0;0;0;0;0;0;0;0;0;0;0;0;0;0;0;0;0
2;0;0;0;0;0;0;0;0;0;0;0;0;0;0;0;0;0;0
3;0;0;0;0;0;0;0;0;0;0;0;0;0;0;0;0;0;0
4;0;0;0;0;0;0;0;0;0;0;0;0;0;0;0;0;0;0
5;0;0;0;0;0;0;0;0;0;0;0;0;0;0;0;0;0;0
6;0;0;0;0;0;0;0;0;0;0;0;0;0;0;0;0;0;0
7;0;0;0;0;0;0;0;0;0;0;0;0;0;0;0;0;0;0
8;0;0;0;0;0;0;0;0;0;0;0;0;0;0;0;0;0;0
9;0;0;0;0;0;0;0;0;0;0;0;0;0;0;0;0;0;0
10;0;0;0;0;0;0;0;0;0;0;0;0;0;0;0;0;0;0
11;0;0;0;0;0;0;0;0;0;0;0;0;0;0;0;0;0;0
12;0;0;0;0;0;0;0;0;0;0;0;0;0;0;0;0;0;0
13;0;0;0;0;0;0;0;0;0;0;0;0;0;0;0;0;0;0
14;0;0;0;0;0;0;0;0;0;0;0;0;0;0;0;0;0;0
15;0;0;0;0;0;0;0;0;0;0;0;0;0;0;0;0;0;0
16;0;0;0;0;0;0;0;0;0;0;0;0;0;0;0;0;0;0
17;0;0;0;0;0;0;0;0;0;0;0;0;0;0;0;0;0;0
18;0;0;0;0;0;0;0;0;0;0;0;0;0;0;0;0;0;0
19;0;0;0;0;0;0;0;0;0;0;0;0;0;0;0;0;0;0
20;0;0;0;0;0;0;0;0;0;0;0;0;0;0;0;0;0;0
21;0;0;0;0;0;0;0;0;0;0;0;0;0;0;0;0;0;0
22;0;0;0;0;0;0;0;0;0;0;0;0;0;0;0;0;0;0
23;0;0;0;0;0;0;0;0;0;0;0;0;0;0;0;0;0;0
24;0;0;0;0;0;0;0;0;0;0;0;0;0;0;0;0;0;0
25;0;0;0;0;0;0;0;0;0;0;0;0;0;0;0;0;0;0
26;0;0;0;0;0;0;0;0;0;0;0;0;0;0;0;0;0;0
27;0;0;0;0;0;0;0;0;0;0;0;0;0;0;0;0;0;0
28;0;0;0;0;0;0;0;0;0;0;0;0;0;0;0;0;0;0
29;0;0;0;0;0;0;0;0;1;0;0;0;0;0;0;0;0;0
30;0;0;0;0;0;0;0;0;0;1;0;0;0;0;0;0;0;0
31;0;0;0;0;0;0;0;0;0;0;0;0;0;0;0;0;0;0
32;0;0;0;0;0;0;0;0;0;0;0;0;0;0;0;0;0;0
33;0;0;0;0;1;0;0;0;0;0;0;0;0;0;0;0;0;0
34;0;0;0;0;0;0;0;0;0;0;0;0;0;0;0;0;0;0
35;0;0;0;0;0;0;0;0;0;1;0;0;0;0;0;0;0;0
36;0;0;0;0;0;0;0;0;0;0;2;0;0;0;0;0;0;0
37;0;0;0;0;0;0;0;0;0;0;0;2;0;0;0;0;0;0
38;0;0;0;0;0;0;0;0;0;0;0;0;2;0;0;0;0;0
39;0;0;0;0;0;0;0;0;0;0;0;0;0;2;0;0;0;0
40;0;0;0;0;0;0;0;0;0;0;0;0;0;0;0;0;0;0
41;0;0;0;0;0;0;0;0;0;0;0;1;0;0;0;0;0;0
42;0;0;0;0;0;0;0;0;0;0;0;0;1;0;0;0;0;0
43;0;0;0;0;0;0;0;0;0;0;0;0;0;1;0;0;0;0
44;0;0;0;0;0;0;0;0;0;0;0;0;0;0;1;0;0;0
45;0;0;0;0;0;0;0;0;0;0;0;0;0;0;0;1;0;0
46;0;0;0;0;1;0;0;0;0;0;0;0;0;0;0;0;0;0
47;0;0;0;0;1;1;0;0;0;0;0;0;0;0;0;0;0;0
48;1;0;0;0;0;1;1;0;0;0;0;0;0;0;0;0;0;0
49;0;1;0;0;0;0;1;1;0;0;0;0;0;0;0;0;0;0
50;0;0;1;0;0;0;0;1;0;0;0;0;0;0;0;0;0;0
51;0;0;0;1;0;0;0;0;1;0;0;0;0;0;0;0;0;0
52;0;0;0;0;1;0;0;0;0;0;0;0;0;0;0;0;0;0
53;0;0;0;0;0;1;0;0;0;0;0;0;0;0;0;0;0;0
54;0;0;0;0;0;0;1;0;0;0;0;0;0;0;0;0;0;0
55;0;0;0;0;0;0;0;0;0;0;0;0;0;0;0;0;0;0
56;0;0;0;0;0;0;0;0;0;0;0;0;0;1;0;0;0;0
57;1;0;0;0;0;0;0;0;0;0;0;0;0;0;1;0;0;0
58;0;0;0;0;0;0;0;1;0;0;0;0;0;0;0;1;0;0
59;0;0;0;0;0;0;0;0;1;0;0;0;0;0;0;0;0;0
60;0;0;0;0;0;0;0;0;0;0;0;0;0;0;0;0;0;0
61;0;0;0;0;0;0;0;0;0;0;0;0;0;0;0;0;0;0
62;0;0;0;0;0;0;0;0;0;0;0;0;0;0;0;0;0;0
63;0;0;0;0;0;0;0;0;0;0;0;0;0;0;0;0;0;0
64;0;0;0;0;0;0;0;0;0;0;0;0;0;0;0;0;0;0
65;0;0;0;0;0;0;0;0;0;0;0;0;0;0;0;0;0;0
66;0;0;0;0;0;0;0;0;0;0;0;0;0;0;0;0;0;0
67;0;0;0;0;0;0;0;0;0;0;0;0;0;0;0;0;0;0
68;0;0;0;0;0;0;0;0;0;0;0;0;0;0;0;0;0;0
69;0;0;0;0;0;0;0;0;0;0;0;0;0;0;0;0;0;0
70;0;0;0;0;0;0;0;0;0;0;0;0;0;0;0;0;0;0
71;0;0;0;0;0;0;0;0;0;0;0;0;0;0;0;0;0;0
72;0;0;0;0;0;0;0;0;0;0;0;0;0;0;0;0;0;0
73;0;0;0;0;0;0;0;0;0;0;0;0;0;0;0;0;0;0
74;0;0;0;0;0;0;0;0;0;0;0;0;0;0;0;0;0;0
75;0;0;0;0;0;0;0;0;0;0;0;0;0;0;0;0;0;0
76;0;0;0;0;0;0;0;0;0;0;0;0;0;0;0;0;0;0
77;0;0;0;0;0;0;0;0;0;0;0;0;0;0;0;0;0;0
78;0;0;0;0;0;0;0;0;0;0;0;0;0;0;0;0;0;0
79;0;0;0;0;0;0;0;0;0;0;0;0;0;0;0;0;0;0
80;0;0;0;0;0;0;0;0;0;0;0;0;0;0;0;0;0;0
81;0;0;0;0;0;0;0;0;0;0;0;0;0;0;0;0;0;0
82;0;0;0;0;0;0;0;0;0;0;0;0;0;0;0;0;0;0
83;0;0;0;0;0;0;0;0;0;0;0;0;0;0;0;0;0;0
84;0;0;0;0;0;0;0;0;0;0;0;0;0;0;0;0;0;0
85;0;0;0;0;0;0;0;0;0;0;0;0;0;0;0;0;0;0
86;0;0;0;0;0;0;0;0;0;0;0;0;0;0;0;0;0;0
87;0;0;0;0;0;0;0;0;0;0;0;0;0;0;0;0;0;0
88;0;0;0;0;0;0;0;0;0;0;0;0;0;0;0;0;0;0
89;0;0;0;0;0;0;0;0;0;0;0;0;0;0;0;0;0;0
90;0;0;0;0;0;0;0;0;0;0;0;0;0;0;0;0;0;0
91;0;0;0;0;0;0;0;0;0;0;0;0;0;0;0;0;0;0
92;0;0;0;0;0;0;0;0;0;0;0;0;0;0;0;0;0;0
93;0;0;0;0;0;0;0;0;0;0;0;0;0;0;0;0;0;0
94;0;0;0;0;0;0;0;0;0;0;0;0;0;0;0;0;0;0
95;0;0;0;0;0;0;0;0;0;0;0;0;0;0;0;0;0;0
96;0;0;0;0;0;0;0;0;0;0;0;0;0;0;0;0;0;0
97;0;0;0;0;0;0;0;0;0;0;0;0;0;0;0;0;0;0
98;0;0;0;0;0;0;0;0;0;0;0;0;0;0;0;0;0;0
99;0;0;0;0;0;0;0;0;0;0;0;0;0;0;0;0;0;0
100 e oltre;0;0;0;0;0;0;0;0;0;0;0;0;0;0;0;0;0;0
Totale;2;1;1;1;4;3;3;3;3;2;2;3;3;4;2;2;0;0
Età/Anno;2002;2003;2004;2005;2006;2007;2008;2009;2010;2011;2012;2013;2014;2015;2016;2017;2018;2019
Età;Maschi
0;0;0;0;0;0;0;0;0;0;0;0;0;0;0;0;0;0;0
1;0;0;0;0;0;0;0;0;0;0;0;0;0;0;0;0;0;0
2;0;0;0;0;0;0;0;0;0;0;0;0;0;0;0;0;0;0
3;0;0;0;0;0;0;0;0;0;0;0;0;0;0;0;0;0;0
4;0;0;0;0;0;0;0;0;0;0;0;0;0;0;0;0;0;0
5;0;0;0;0;0;0;0;0;0;0;0;0;0;0;0;0;0;0
6;0;0;0;0;0;0;0;0;0;0;0;0;0;0;0;0;0;0
7;0;0;0;0;0;0;0;0;0;0;0;0;0;0;0;0;0;0
8;0;0;0;0;0;0;0;0;0;0;0;0;0;0;0;0;0;0
9;0;0;0;0;0;0;0;0;0;0;0;0;0;0;0;0;0;0
10;0;0;0;0;0;0;0;0;0;0;0;0;0;0;0;0;0;0
11;0;0;0;0;0;0;0;0;0;0;0;0;0;0;0;0;0;0
12;0;0;0;0;0;0;0;0;0;0;0;0;0;0;0;0;0;0
13;0;0;0;0;0;0;0;0;0;0;0;0;0;0;0;0;0;0
14;0;0;0;0;0;0;0;0;0;0;0;0;0;0;0;0;0;0
15;0;0;0;0;0;0;0;0;0;0;0;0;0;0;0;0;0;0
16;0;0;0;0;0;0;0;0;0;0;0;0;0;0;0;0;0;0
17;0;0;0;0;0;0;0;0;0;0;0;0;0;0;0;0;0;0
18;0;0;0;0;0;0;0;0;0;0;0;0;0;0;0;0;0;0
19;0;0;0;0;0;0;0;0;0;0;0;0;0;0;0;0;0;0
20;0;0;0;0;0;0;0;0;0;0;0;0;0;0;0;0;0;0
21;0;0;0;0;0;0;0;0;0;0;0;0;0;0;0;0;0;0
22;0;0;0;0;0;0;0;0;0;0;0;0;0;0;0;0;0;0
23;0;0;0;0;0;0;0;0;0;0;0;0;0;0;0;0;0;0
24;0;0;0;0;0;0;0;0;0;0;0;0;0;0;0;0;0;0
25;0;0;0;0;0;0;0;0;0;0;0;0;0;0;0;0;0;0
26;0;0;0;0;0;0;0;0;0;0;0;0;0;0;0;0;0;0
27;0;0;0;0;0;0;0;0;0;0;0;0;0;0;0;0;0;0
28;0;0;0;0;0;0;0;0;0;0;0;0;0;0;0;0;0;0
29;0;0;0;0;0;0;0;0;0;0;0;0;0;0;0;0;0;0
30;0;0;0;0;0;0;0;0;0;0;0;0;0;0;0;0;0;0
31;0;0;0;0;0;0;0;0;0;0;0;0;0;0;0;0;0;0
32;0;0;0;0;0;0;0;0;0;0;0;0;0;0;0;0;0;0
33;0;0;0;0;1;0;0;0;0;0;0;0;0;0;0;0;0;0
34;0;0;0;0;0;0;0;0;0;0;0;0;0;0;0;0;0;0
35;0;0;0;0;0;0;0;0;0;0;0;0;0;0;0;0;0;0
36;0;0;0;0;0;0;0;0;0;0;0;0;0;0;0;0;0;0
37;0;0;0;0;0;0;0;0;0;0;0;0;0;0;0;0;0;0
38;0;0;0;0;0;0;0;0;0;0;0;0;0;0;0;0;0;0
39;0;0;0;0;0;0;0;0;0;0;0;0;0;0;0;0;0;0
40;0;0;0;0;0;0;0;0;0;0;0;0;0;0;0;0;0;0
41;0;0;0;0;0;0;0;0;0;0;0;0;0;0;0;0;0;0
42;0;0;0;0;0;0;0;0;0;0;0;0;0;0;0;0;0;0
43;0;0;0;0;0;0;0;0;0;0;0;0;0;0;0;0;0;0
44;0;0;0;0;0;0;0;0;0;0;0;0;0;0;0;0;0;0
45;0;0;0;0;0;0;0;0;0;0;0;0;0;0;0;0;0;0
46;0;0;0;0;1;0;0;0;0;0;0;0;0;0;0;0;0;0
47;0;0;0;0;1;1;0;0;0;0;0;0;0;0;0;0;0;0
48;0;0;0;0;0;1;1;0;0;0;0;0;0;0;0;0;0;0
49;0;0;0;0;0;0;1;1;0;0;0;0;0;0;0;0;0;0
50;0;0;0;0;0;0;0;1;0;0;0;0;0;0;0;0;0;0
51;0;0;0;0;0;0;0;0;1;0;0;0;0;0;0;0;0;0
52;0;0;0;0;0;0;0;0;0;0;0;0;0;0;0;0;0;0
53;0;0;0;0;0;0;0;0;0;0;0;0;0;0;0;0;0;0
54;0;0;0;0;0;0;0;0;0;0;0;0;0;0;0;0;0;0
55;0;0;0;0;0;0;0;0;0;0;0;0;0;0;0;0;0;0
56;0;0;0;0;0;0;0;0;0;0;0;0;0;1;0;0;0;0
57;0;0;0;0;0;0;0;0;0;0;0;0;0;0;1;0;0;0
58;0;0;0;0;0;0;0;0;0;0;0;0;0;0;0;1;0;0
59;0;0;0;0;0;0;0;0;0;0;0;0;0;0;0;0;0;0
60;0;0;0;0;0;0;0;0;0;0;0;0;0;0;0;0;0;0
61;0;0;0;0;0;0;0;0;0;0;0;0;0;0;0;0;0;0
62;0;0;0;0;0;0;0;0;0;0;0;0;0;0;0;0;0;0
63;0;0;0;0;0;0;0;0;0;0;0;0;0;0;0;0;0;0
64;0;0;0;0;0;0;0;0;0;0;0;0;0;0;0;0;0;0
65;0;0;0;0;0;0;0;0;0;0;0;0;0;0;0;0;0;0
66;0;0;0;0;0;0;0;0;0;0;0;0;0;0;0;0;0;0
67;0;0;0;0;0;0;0;0;0;0;0;0;0;0;0;0;0;0
68;0;0;0;0;0;0;0;0;0;0;0;0;0;0;0;0;0;0
69;0;0;0;0;0;0;0;0;0;0;0;0;0;0;0;0;0;0
70;0;0;0;0;0;0;0;0;0;0;0;0;0;0;0;0;0;0
71;0;0;0;0;0;0;0;0;0;0;0;0;0;0;0;0;0;0
72;0;0;0;0;0;0;0;0;0;0;0;0;0;0;0;0;0;0
73;0;0;0;0;0;0;0;0;0;0;0;0;0;0;0;0;0;0
74;0;0;0;0;0;0;0;0;0;0;0;0;0;0;0;0;0;0
75;0;0;0;0;0;0;0;0;0;0;0;0;0;0;0;0;0;0
76;0;0;0;0;0;0;0;0;0;0;0;0;0;0;0;0;0;0
77;0;0;0;0;0;0;0;0;0;0;0;0;0;0;0;0;0;0
78;0;0;0;0;0;0;0;0;0;0;0;0;0;0;0;0;0;0
79;0;0;0;0;0;0;0;0;0;0;0;0;0;0;0;0;0;0
80;0;0;0;0;0;0;0;0;0;0;0;0;0;0;0;0;0;0
81;0;0;0;0;0;0;0;0;0;0;0;0;0;0;0;0;0;0
82;0;0;0;0;0;0;0;0;0;0;0;0;0;0;0;0;0;0
83;0;0;0;0;0;0;0;0;0;0;0;0;0;0;0;0;0;0
84;0;0;0;0;0;0;0;0;0;0;0;0;0;0;0;0;0;0
85;0;0;0;0;0;0;0;0;0;0;0;0;0;0;0;0;0;0
86;0;0;0;0;0;0;0;0;0;0;0;0;0;0;0;0;0;0
87;0;0;0;0;0;0;0;0;0;0;0;0;0;0;0;0;0;0
88;0;0;0;0;0;0;0;0;0;0;0;0;0;0;0;0;0;0
89;0;0;0;0;0;0;0;0;0;0;0;0;0;0;0;0;0;0
90;0;0;0;0;0;0;0;0;0;0;0;0;0;0;0;0;0;0
91;0;0;0;0;0;0;0;0;0;0;0;0;0;0;0;0;0;0
92;0;0;0;0;0;0;0;0;0;0;0;0;0;0;0;0;0;0
93;0;0;0;0;0;0;0;0;0;0;0;0;0;0;0;0;0;0
94;0;0;0;0;0;0;0;0;0;0;0;0;0;0;0;0;0;0
95;0;0;0;0;0;0;0;0;0;0;0;0;0;0;0;0;0;0
96;0;0;0;0;0;0;0;0;0;0;0;0;0;0;0;0;0;0
97;0;0;0;0;0;0;0;0;0;0;0;0;0;0;0;0;0;0
98;0;0;0;0;0;0;0;0;0;0;0;0;0;0;0;0;0;0
99;0;0;0;0;0;0;0;0;0;0;0;0;0;0;0;0;0;0
100 e oltre;0;0;0;0;0;0;0;0;0;0;0;0;0;0;0;0;0;0
Totale;0;0;0;0;3;2;2;2;1;0;0;0;0;1;1;1;0;0
Età/Anno;2002;2003;2004;2005;2006;2007;2008;2009;2010;2011;2012;2013;2014;2015;2016;2017;2018;2019
Età;Femmine
0;0;0;0;0;0;0;0;0;0;0;0;0;0;0;0;0;0;0
1;0;0;0;0;0;0;0;0;0;0;0;0;0;0;0;0;0;0
2;0;0;0;0;0;0;0;0;0;0;0;0;0;0;0;0;0;0
3;0;0;0;0;0;0;0;0;0;0;0;0;0;0;0;0;0;0
4;0;0;0;0;0;0;0;0;0;0;0;0;0;0;0;0;0;0
5;0;0;0;0;0;0;0;0;0;0;0;0;0;0;0;0;0;0
6;0;0;0;0;0;0;0;0;0;0;0;0;0;0;0;0;0;0
7;0;0;0;0;0;0;0;0;0;0;0;0;0;0;0;0;0;0
8;0;0;0;0;0;0;0;0;0;0;0;0;0;0;0;0;0;0
9;0;0;0;0;0;0;0;0;0;0;0;0;0;0;0;0;0;0
10;0;0;0;0;0;0;0;0;0;0;0;0;0;0;0;0;0;0
11;0;0;0;0;0;0;0;0;0;0;0;0;0;0;0;0;0;0
12;0;0;0;0;0;0;0;0;0;0;0;0;0;0;0;0;0;0
13;0;0;0;0;0;0;0;0;0;0;0;0;0;0;0;0;0;0
14;0;0;0;0;0;0;0;0;0;0;0;0;0;0;0;0;0;0
15;0;0;0;0;0;0;0;0;0;0;0;0;0;0;0;0;0;0
16;0;0;0;0;0;0;0;0;0;0;0;0;0;0;0;0;0;0
17;0;0;0;0;0;0;0;0;0;0;0;0;0;0;0;0;0;0
18;0;0;0;0;0;0;0;0;0;0;0;0;0;0;0;0;0;0
19;0;0;0;0;0;0;0;0;0;0;0;0;0;0;0;0;0;0
20;0;0;0;0;0;0;0;0;0;0;0;0;0;0;0;0;0;0
21;0;0;0;0;0;0;0;0;0;0;0;0;0;0;0;0;0;0
22;0;0;0;0;0;0;0;0;0;0;0;0;0;0;0;0;0;0
23;0;0;0;0;0;0;0;0;0;0;0;0;0;0;0;0;0;0
24;0;0;0;0;0;0;0;0;0;0;0;0;0;0;0;0;0;0
25;0;0;0;0;0;0;0;0;0;0;0;0;0;0;0;0;0;0
26;0;0;0;0;0;0;0;0;0;0;0;0;0;0;0;0;0;0
27;0;0;0;0;0;0;0;0;0;0;0;0;0;0;0;0;0;0
28;0;0;0;0;0;0;0;0;0;0;0;0;0;0;0;0;0;0
29;0;0;0;0;0;0;0;0;1;0;0;0;0;0;0;0;0;0
30;0;0;0;0;0;0;0;0;0;1;0;0;0;0;0;0;0;0
31;0;0;0;0;0;0;0;0;0;0;0;0;0;0;0;0;0;0
32;0;0;0;0;0;0;0;0;0;0;0;0;0;0;0;0;0;0
33;0;0;0;0;0;0;0;0;0;0;0;0;0;0;0;0;0;0
34;0;0;0;0;0;0;0;0;0;0;0;0;0;0;0;0;0;0
35;0;0;0;0;0;0;0;0;0;1;0;0;0;0;0;0;0;0
36;0;0;0;0;0;0;0;0;0;0;2;0;0;0;0;0;0;0
37;0;0;0;0;0;0;0;0;0;0;0;2;0;0;0;0;0;0
38;0;0;0;0;0;0;0;0;0;0;0;0;2;0;0;0;0;0
39;0;0;0;0;0;0;0;0;0;0;0;0;0;2;0;0;0;0
40;0;0;0;0;0;0;0;0;0;0;0;0;0;0;0;0;0;0
41;0;0;0;0;0;0;0;0;0;0;0;1;0;0;0;0;0;0
42;0;0;0;0;0;0;0;0;0;0;0;0;1;0;0;0;0;0
43;0;0;0;0;0;0;0;0;0;0;0;0;0;1;0;0;0;0
44;0;0;0;0;0;0;0;0;0;0;0;0;0;0;1;0;0;0
45;0;0;0;0;0;0;0;0;0;0;0;0;0;0;0;1;0;0
46;0;0;0;0;0;0;0;0;0;0;0;0;0;0;0;0;0;0
47;0;0;0;0;0;0;0;0;0;0;0;0;0;0;0;0;0;0
48;1;0;0;0;0;0;0;0;0;0;0;0;0;0;0;0;0;0
49;0;1;0;0;0;0;0;0;0;0;0;0;0;0;0;0;0;0
50;0;0;1;0;0;0;0;0;0;0;0;0;0;0;0;0;0;0
51;0;0;0;1;0;0;0;0;0;0;0;0;0;0;0;0;0;0
52;0;0;0;0;1;0;0;0;0;0;0;0;0;0;0;0;0;0
53;0;0;0;0;0;1;0;0;0;0;0;0;0;0;0;0;0;0
54;0;0;0;0;0;0;1;0;0;0;0;0;0;0;0;0;0;0
55;0;0;0;0;0;0;0;0;0;0;0;0;0;0;0;0;0;0
56;0;0;0;0;0;0;0;0;0;0;0;0;0;0;0;0;0;0
57;1;0;0;0;0;0;0;0;0;0;0;0;0;0;0;0;0;0
58;0;0;0;0;0;0;0;1;0;0;0;0;0;0;0;0;0;0
59;0;0;0;0;0;0;0;0;1;0;0;0;0;0;0;0;0;0
60;0;0;0;0;0;0;0;0;0;0;0;0;0;0;0;0;0;0
61;0;0;0;0;0;0;0;0;0;0;0;0;0;0;0;0;0;0
62;0;0;0;0;0;0;0;0;0;0;0;0;0;0;0;0;0;0
63;0;0;0;0;0;0;0;0;0;0;0;0;0;0;0;0;0;0
64;0;0;0;0;0;0;0;0;0;0;0;0;0;0;0;0;0;0
65;0;0;0;0;0;0;0;0;0;0;0;0;0;0;0;0;0;0
66;0;0;0;0;0;0;0;0;0;0;0;0;0;0;0;0;0;0
67;0;0;0;0;0;0;0;0;0;0;0;0;0;0;0;0;0;0
68;0;0;0;0;0;0;0;0;0;0;0;0;0;0;0;0;0;0
69;0;0;0;0;0;0;0;0;0;0;0;0;0;0;0;0;0;0
70;0;0;0;0;0;0;0;0;0;0;0;0;0;0;0;0;0;0
71;0;0;0;0;0;0;0;0;0;0;0;0;0;0;0;0;0;0
72;0;0;0;0;0;0;0;0;0;0;0;0;0;0;0;0;0;0
73;0;0;0;0;0;0;0;0;0;0;0;0;0;0;0;0;0;0
74;0;0;0;0;0;0;0;0;0;0;0;0;0;0;0;0;0;0
75;0;0;0;0;0;0;0;0;0;0;0;0;0;0;0;0;0;0
76;0;0;0;0;0;0;0;0;0;0;0;0;0;0;0;0;0;0
77;0;0;0;0;0;0;0;0;0;0;0;0;0;0;0;0;0;0
78;0;0;0;0;0;0;0;0;0;0;0;0;0;0;0;0;0;0
79;0;0;0;0;0;0;0;0;0;0;0;0;0;0;0;0;0;0
80;0;0;0;0;0;0;0;0;0;0;0;0;0;0;0;0;0;0
81;0;0;0;0;0;0;0;0;0;0;0;0;0;0;0;0;0;0
82;0;0;0;0;0;0;0;0;0;0;0;0;0;0;0;0;0;0
83;0;0;0;0;0;0;0;0;0;0;0;0;0;0;0;0;0;0
84;0;0;0;0;0;0;0;0;0;0;0;0;0;0;0;0;0;0
85;0;0;0;0;0;0;0;0;0;0;0;0;0;0;0;0;0;0
86;0;0;0;0;0;0;0;0;0;0;0;0;0;0;0;0;0;0
87;0;0;0;0;0;0;0;0;0;0;0;0;0;0;0;0;0;0
88;0;0;0;0;0;0;0;0;0;0;0;0;0;0;0;0;0;0
89;0;0;0;0;0;0;0;0;0;0;0;0;0;0;0;0;0;0
90;0;0;0;0;0;0;0;0;0;0;0;0;0;0;0;0;0;0
91;0;0;0;0;0;0;0;0;0;0;0;0;0;0;0;0;0;0
92;0;0;0;0;0;0;0;0;0;0;0;0;0;0;0;0;0;0
93;0;0;0;0;0;0;0;0;0;0;0;0;0;0;0;0;0;0
94;0;0;0;0;0;0;0;0;0;0;0;0;0;0;0;0;0;0
95;0;0;0;0;0;0;0;0;0;0;0;0;0;0;0;0;0;0
96;0;0;0;0;0;0;0;0;0;0;0;0;0;0;0;0;0;0
97;0;0;0;0;0;0;0;0;0;0;0;0;0;0;0;0;0;0
98;0;0;0;0;0;0;0;0;0;0;0;0;0;0;0;0;0;0
99;0;0;0;0;0;0;0;0;0;0;0;0;0;0;0;0;0;0
100 e oltre;0;0;0;0;0;0;0;0;0;0;0;0;0;0;0;0;0;0
Totale;2;1;1;1;1;1;1;1;2;2;2;3;3;3;1;1;0;0
